#time	ekin		epot		etot		chain_length	temperature
0	587.030294	0.000609	587.030902	82.000061	75.687773
0.1	586.947581	10.427608	597.375188	81.689975	75.677108
0.2	558.261433	40.828966	599.090399	81.396678	71.978508
0.3	520.654948	88.899490	609.554437	81.113158	67.129778
0.4	462.893845	150.382219	613.276064	80.814659	59.682447
0.5	394.657447	218.647004	613.304452	80.545203	50.884500
0.6	331.013719	286.479370	617.493089	80.296460	42.678702
0.7	281.392708	343.733616	625.126324	80.074726	36.280900
0.8	253.741608	379.590952	633.332560	79.888992	32.715751
0.9	229.806508	399.638278	629.444786	79.730448	29.629719
1	212.098405	410.967734	623.066139	79.592206	27.346554
1.1	218.918521	414.984148	633.902670	79.472576	28.225895
1.2	220.941471	412.637548	633.579019	79.354294	28.486720
1.3	240.717337	405.078445	645.795782	79.251372	31.036489
1.4	261.975983	392.355214	654.331198	79.168261	33.777437
1.5	297.809623	374.369791	672.179414	79.115943	38.397588
1.6	331.413627	352.461604	683.875231	79.083723	42.730264
1.7	370.282449	328.756827	699.039276	79.062540	47.741751
1.8	410.942820	303.410397	714.353217	79.059688	52.984228
1.9	413.280484	277.569313	690.849797	79.103478	53.285631
2	446.874467	253.642477	700.516945	79.182421	57.617015
2.1	477.768948	233.266471	711.035419	79.268454	61.600343
2.2	500.776533	216.905110	717.681643	79.370994	64.566788
2.3	508.577530	206.786324	715.363854	79.505023	65.572596
2.4	504.660857	203.325987	707.986844	79.689604	65.067607
2.5	503.090689	206.834856	709.925545	79.919909	64.865160
2.6	499.516734	216.418721	715.935455	80.150157	64.404358
2.7	491.713707	231.964294	723.678001	80.380371	63.398288
2.8	483.644372	253.118608	736.762980	80.612545	62.357881
2.9	452.264533	278.695804	730.960337	80.829113	58.311974
3	417.482478	305.935011	723.417489	81.039764	53.827408
3.1	392.072359	333.375341	725.447701	81.268567	50.551196
3.2	364.029226	359.974799	724.004024	81.490396	46.935502
3.3	344.559287	384.600332	729.159618	81.716237	44.425177
3.4	307.859121	404.585863	712.444984	81.942948	39.693303
3.5	305.202089	419.485661	724.687751	82.154794	39.350723
3.6	318.393746	427.592100	745.985846	82.352986	41.051567
3.7	310.239180	428.636748	738.875928	82.540530	40.000172
3.8	335.481032	422.641477	758.122510	82.722255	43.254688
3.9	369.150558	410.223648	779.374206	82.900689	47.595812
4	380.668767	392.300526	772.969293	83.069015	49.080893
4.1	409.106410	370.669826	779.776236	83.238302	52.747453
4.2	423.376931	347.830038	771.206969	83.411595	54.587399
4.3	443.325216	323.894362	767.219578	83.589017	57.159398
4.4	459.972176	299.516811	759.488986	83.767650	59.305746
4.5	477.023861	276.465787	753.489649	83.938981	61.504277
4.6	516.871206	255.229466	772.100672	84.107216	66.641928
4.7	536.888398	236.453637	773.342036	84.284448	69.222811
4.8	560.487786	221.882211	782.369997	84.487792	72.265559
4.9	596.519829	211.252032	807.771861	84.710315	76.911290
5	618.609414	204.960175	823.569589	84.924977	79.759374
5.1	620.201687	203.010018	823.211705	85.131176	79.964671
5.2	638.252351	205.659368	843.911718	85.317181	82.292003
5.3	631.374056	211.806688	843.180744	85.518600	81.405162
5.4	631.247228	221.136967	852.384195	85.745849	81.388809
5.5	630.104713	234.044622	864.149336	85.966986	81.241501
5.6	618.471721	248.974225	867.445946	86.170281	79.741621
5.7	599.085280	264.347870	863.433150	86.376660	77.242062
5.8	589.634939	279.567506	869.202445	86.584512	76.023598
5.9	566.978470	291.634820	858.613290	86.790561	73.102424
6	548.078882	301.837109	849.915991	86.993620	70.665637
6.1	537.745156	311.408433	849.153589	87.203401	69.333276
6.2	516.557809	319.463710	836.021519	87.403585	66.601520
6.3	503.422041	326.645354	830.067395	87.615377	64.907882
6.4	515.632997	333.323514	848.956512	87.858388	66.482281
6.5	527.636235	340.047096	867.683331	88.100204	68.029899
6.6	520.111917	346.394472	866.506389	88.348275	67.059763
6.7	504.809554	353.449612	858.259166	88.597109	65.086779
6.8	498.814777	360.627348	859.442125	88.837143	64.313852
6.9	497.611861	367.610245	865.222106	89.072528	64.158756
7	480.075304	373.588010	853.663314	89.292648	61.897709
7.1	461.794640	379.507315	841.301955	89.499973	59.540722
7.2	463.558250	384.186404	847.744654	89.692369	59.768111
7.3	453.671557	387.961070	841.632627	89.905015	58.493386
7.4	449.518197	389.438112	838.956309	90.099009	57.957880
7.5	451.390631	390.300584	841.691215	90.286356	58.199299
7.6	432.394239	390.447359	822.841597	90.458696	55.750031
7.7	443.640974	389.291586	832.932560	90.637930	57.200110
7.8	431.274445	385.999222	817.273668	90.826537	55.605652
7.9	458.165244	381.341555	839.506799	91.047097	59.072772
8	488.602842	376.547142	865.149983	91.280684	62.997193
8.1	508.155257	371.444842	879.600100	91.525281	65.518151
8.2	523.001254	366.821479	889.822733	91.775714	67.432295
8.3	526.477535	363.314796	889.792331	92.033443	67.880504
8.4	543.263377	360.731937	903.995314	92.305861	70.044758
8.5	534.180018	357.359785	891.539803	92.599511	68.873611
8.6	533.792175	352.845693	886.637868	92.876644	68.823605
8.7	557.825536	348.367168	906.192704	93.145674	71.922306
8.8	559.919196	343.630056	903.549252	93.400013	72.192249
8.9	579.590623	339.497272	919.087895	93.653988	74.728551
9	570.296070	337.171177	907.467247	93.898267	73.530174
9.1	573.734665	336.750485	910.485150	94.129149	73.973523
9.2	564.833506	337.967483	902.800989	94.348227	72.825867
9.3	573.303482	340.698444	914.001926	94.550094	73.917929
9.4	598.429728	344.688327	943.118055	94.748811	77.157540
9.5	577.623081	351.304153	928.927235	94.959161	74.474870
9.6	576.857100	359.858097	936.715197	95.183682	74.376109
9.7	563.205234	368.632674	931.837908	95.389127	72.615928
9.8	549.470085	377.624905	927.094990	95.555489	70.845010
9.9	528.482005	386.666442	915.148447	95.706507	68.138947
10	510.709926	395.858280	906.568206	95.854857	65.847533
10.1	515.477648	405.672819	921.150467	95.973068	66.462252
10.2	521.288469	413.758873	935.047342	96.056115	67.211460
10.3	522.914882	420.754952	943.669834	96.128918	67.421159
10.4	530.204093	426.892784	957.096877	96.205761	68.360981
10.5	536.740126	430.700929	967.441055	96.276288	69.203694
10.6	569.151523	432.093765	1001.245288	96.348086	73.382603
10.7	593.497831	431.894435	1025.392266	96.407818	76.521654
10.8	614.202276	430.963639	1045.165915	96.437348	79.191147
10.9	603.686557	428.083723	1031.770279	96.439547	77.835320
11	621.744127	423.787325	1045.531452	96.433932	80.163543
11.1	609.833297	418.079118	1027.912415	96.425486	78.627840
11.2	620.576293	412.107310	1032.683604	96.425518	80.012970
11.3	625.211381	405.880443	1031.091824	96.436311	80.610588
11.4	625.427250	398.839941	1024.267191	96.454927	80.638420
11.5	625.963327	392.820477	1018.783804	96.469903	80.707539
11.6	628.839636	385.840314	1014.679951	96.498462	81.078391
11.7	643.785692	374.821246	1018.606938	96.513705	83.005435
11.8	649.718027	361.544765	1011.262791	96.507949	83.770311
11.9	657.876588	347.899699	1005.776288	96.494310	84.822222
12	670.228677	336.005511	1006.234188	96.474053	86.414818
12.1	665.891580	327.439800	993.331380	96.461387	85.855621
12.2	666.670480	322.683256	989.353736	96.426525	85.956048
12.3	649.092672	320.933468	970.026140	96.393721	83.689682
12.4	667.668467	323.574344	991.242811	96.349148	86.084721
12.5	659.852773	328.469252	988.322025	96.300241	85.077018
12.6	636.220485	336.378724	972.599209	96.255822	82.030028
12.7	629.382995	345.900611	975.283606	96.218918	81.148448
12.8	620.621200	356.854481	977.475682	96.168805	80.018760
12.9	595.066003	366.872431	961.938433	96.127601	76.723844
13	586.101088	377.175980	963.277069	96.108429	75.567967
13.1	556.662092	385.830879	942.492971	96.101987	71.772299
13.2	555.644918	391.910831	947.555749	96.103789	71.641152
13.3	546.809553	397.231519	944.041072	96.134458	70.501979
13.4	546.954665	400.039922	946.994588	96.181482	70.520688
13.5	580.433502	400.647543	981.081045	96.236396	74.837226
13.6	583.552468	399.928819	983.481288	96.308714	75.239365
13.7	600.789726	398.221019	999.010745	96.388908	77.461822
13.8	614.773814	395.602338	1010.376152	96.485237	79.264837
13.9	648.521288	391.925814	1040.447101	96.601322	83.616012
14	647.616002	388.561344	1036.177346	96.730554	83.499290
14.1	672.037606	386.169171	1058.206777	96.869677	86.648049
14.2	661.805369	384.703375	1046.508743	97.037773	85.328772
14.3	646.349585	384.125774	1030.475359	97.230388	83.336007
14.4	633.198900	385.338213	1018.537113	97.429020	81.640445
14.5	632.467975	386.762981	1019.230955	97.637217	81.546204
14.6	635.459204	388.166680	1023.625885	97.833295	81.931874
14.7	653.067459	389.538161	1042.605620	98.009936	84.202165
14.8	654.456999	391.825281	1046.282280	98.179611	84.381323
14.9	664.075807	394.317875	1058.393682	98.360312	85.621508
15	679.018626	396.589626	1075.608252	98.523974	87.548135
15.1	679.560634	398.168269	1077.728903	98.695080	87.618018
15.2	682.207226	399.533759	1081.740985	98.878555	87.959252
15.3	704.568983	401.688779	1106.257763	99.069642	90.842428
15.4	706.311244	404.955199	1111.266443	99.254937	91.067063
15.5	701.139644	408.059556	1109.199200	99.432815	90.400272
15.6	690.920159	411.069183	1101.989342	99.625252	89.082639
15.7	688.956678	414.560037	1103.516715	99.819571	88.829481
15.8	692.797749	419.472951	1112.270700	100.010823	89.324723
15.9	671.633628	424.963593	1096.597221	99.878721	86.595963
16	693.467127	431.435107	1124.902234	99.708768	89.411029
16.1	692.193342	439.033537	1131.226879	99.534691	89.246795
16.2	677.875917	447.996000	1125.871917	99.369347	87.400802
16.3	693.189663	456.024797	1149.214460	99.194100	89.375254
16.4	699.022798	463.390734	1162.413532	99.014452	90.127340
16.5	680.905993	469.921978	1150.827971	98.849165	87.791480
16.6	692.762300	476.055392	1168.817692	98.677977	89.320153
16.7	710.779764	481.651866	1192.431630	98.507356	91.643205
16.8	728.668171	486.145051	1214.813222	98.359230	93.949616
16.9	730.161882	489.816823	1219.978705	98.208442	94.142206
17	721.245285	493.151268	1214.396553	98.073866	92.992559
17.1	711.524316	495.007674	1206.531990	97.963251	91.739202
17.2	700.218741	495.000279	1195.219020	97.870758	90.281537
17.3	727.507248	495.255626	1222.762874	97.763349	93.799935
17.4	721.408375	495.460831	1216.869206	97.630323	93.013587
17.5	717.045250	494.171299	1211.216549	97.503433	92.451035
17.6	706.680706	491.394557	1198.075264	97.372117	91.114699
17.7	712.790531	488.699181	1201.489712	97.239297	91.902459
17.8	714.562226	486.561862	1201.124089	97.102056	92.130890
17.9	713.815296	484.374477	1198.189773	96.976465	92.034586
18	707.449844	483.100156	1190.550000	96.852428	91.213867
18.1	717.421790	481.457874	1198.879664	96.723155	92.499583
18.2	728.435444	480.723594	1209.159038	96.603814	93.919610
18.3	751.188994	481.583574	1232.772567	96.478687	96.853301
18.4	784.204063	484.477370	1268.681433	96.343145	101.110044
18.5	788.700537	489.641787	1278.342324	96.194479	101.689790
18.6	768.749300	496.753684	1265.502984	96.057093	99.117410
18.7	760.333746	504.206129	1264.539875	95.919849	98.032365
18.8	780.596008	511.072782	1291.668790	95.801669	100.644846
18.9	774.877716	517.567026	1292.444743	95.695988	99.907567
19	778.423691	522.655307	1301.078998	95.597353	100.364762
19.1	790.022276	528.519935	1318.542210	95.505484	101.860206
19.2	792.403588	534.460282	1326.863870	95.414211	102.167236
19.3	770.542243	540.497853	1311.040096	95.316173	99.348580
19.4	754.763048	546.937520	1301.700569	95.216505	97.314116
19.5	752.206616	551.870711	1304.077328	95.118535	96.984507
19.6	753.293725	554.698026	1307.991751	95.020750	97.124671
19.7	756.702791	557.227161	1313.929952	94.928088	97.564214
19.8	765.478411	558.198054	1323.676465	94.845963	98.695684
19.9	760.626805	558.367765	1318.994570	94.782248	98.070150
20	755.419980	555.771980	1311.191959	94.708759	97.398816
20.1	782.859393	549.906540	1332.765934	94.641768	100.936671
20.2	806.920654	542.887598	1349.808252	94.571818	104.038970
20.3	807.909744	534.594358	1342.504103	94.502498	104.166497
20.4	816.681556	526.858599	1343.540155	94.411333	105.297476
20.5	828.488974	519.665826	1348.154800	94.329509	106.819845
20.6	838.192512	515.731014	1353.923526	94.247332	108.070955
20.7	856.434622	512.410517	1368.845139	94.154107	110.422971
20.8	877.777676	509.499761	1387.277437	94.060424	113.174802
20.9	883.339319	507.379458	1390.718777	93.949737	113.891883
21	903.790889	506.248822	1410.039711	93.842327	116.528772
21.1	911.110319	503.875342	1414.985661	93.739134	117.472491
21.2	915.832435	502.098113	1417.930548	93.653587	118.081329
21.3	910.811417	500.020106	1410.831523	93.600884	117.433952
21.4	905.971132	497.038130	1403.009262	93.569689	116.809878
21.5	907.932324	492.631428	1400.563752	93.523694	117.062741
21.6	906.963439	489.597135	1396.560574	93.462132	116.937820
21.7	911.453580	488.963000	1400.416580	93.408361	117.516749
21.8	891.033673	489.995142	1381.028815	93.354247	114.883942
21.9	865.610551	492.145396	1357.755947	93.308473	111.606054
22	873.953478	494.985358	1368.938835	93.285606	112.681735
22.1	877.748780	498.635111	1376.383891	93.286504	113.171076
22.2	886.931143	503.504199	1390.435342	93.308318	114.354989
22.3	888.476943	510.406912	1398.883855	93.349729	114.554294
22.4	882.475612	518.502285	1400.977897	93.396593	113.780523
22.5	888.113423	528.343016	1416.456439	93.416550	114.507424
22.6	889.149148	539.766689	1428.915837	93.421078	114.640964
22.7	883.230350	550.832139	1434.062489	93.411288	113.877834
22.8	887.916150	562.873508	1450.789657	93.388639	114.481989
22.9	850.544793	573.411915	1423.956708	93.356267	109.663576
23	806.514402	581.548965	1388.063367	93.330759	103.986591
23.1	804.012677	588.018961	1392.031638	93.294961	103.664035
23.2	794.137702	592.748917	1386.886619	93.267623	102.390821
23.3	788.679133	593.077610	1381.756743	93.245124	101.687030
23.4	803.972312	590.219297	1394.191609	93.221289	103.658830
23.5	796.183928	585.825843	1382.009771	93.182698	102.654648
23.6	826.306783	578.073140	1404.379923	93.126742	106.538488
23.7	849.398919	568.095046	1417.493965	93.054770	109.515834
23.8	844.534242	557.240692	1401.774934	92.987247	108.888615
23.9	849.683646	544.527183	1394.210829	92.910505	109.552545
24	855.870009	532.382457	1388.252466	92.824332	110.350174
24.1	861.465514	520.474770	1381.940284	92.723768	111.071621
24.2	878.440682	510.881098	1389.321780	92.630749	113.260286
24.3	864.538567	502.567407	1367.105974	92.512639	111.467840
24.4	895.322091	497.057092	1392.379184	92.394239	115.436862
24.5	892.038900	494.230135	1386.269034	92.262418	115.013549
24.6	885.639528	493.223935	1378.863463	92.117794	114.188457
24.7	875.493282	494.220158	1369.713440	91.973796	112.880267
24.8	896.341357	493.936436	1390.277794	91.826095	115.568279
24.9	905.496656	493.536605	1399.033260	91.664461	116.748703
25	889.028251	493.954423	1382.982674	91.494703	114.625376
25.1	900.831300	496.839020	1397.670321	91.306573	116.147183
25.2	901.882057	501.355966	1403.238023	91.094524	116.282660
25.3	892.635352	507.013868	1399.649221	90.888401	115.090452
25.4	883.706812	514.710322	1398.417134	90.661019	113.939265
25.5	879.017122	524.605867	1403.622989	90.417478	113.334608
25.6	865.226318	536.150733	1401.377051	90.189261	111.556514
25.7	840.282200	546.909939	1387.192139	89.963544	108.340385
25.8	870.893491	556.519662	1427.413153	89.739697	112.287201
25.9	877.999592	566.380971	1444.380563	89.498467	113.203414
26	878.151118	576.299953	1454.451071	89.246935	113.222951
26.1	846.797339	584.779555	1431.576894	88.992502	109.180404
26.2	836.175963	592.206171	1428.382134	88.735824	107.810954
26.3	818.406134	597.472843	1415.878977	88.468189	105.519831
26.4	834.134516	599.082208	1433.216724	88.200117	107.547744
26.5	861.222625	596.794853	1458.017478	87.928177	111.040304
26.6	845.134856	589.220305	1434.355161	87.645255	108.966055
26.7	855.400965	581.024338	1436.425303	87.367123	110.289698
26.8	852.869268	573.100047	1425.969315	87.084242	109.963278
26.9	854.339099	565.107028	1419.446126	86.818343	110.152788
27	881.427708	554.771667	1436.199375	86.547480	113.645413
27.1	870.478811	543.037745	1413.516557	86.284550	112.233735
27.2	852.254196	531.242748	1383.496944	86.031431	109.883975
27.3	868.185181	518.142001	1386.327182	85.781256	111.938010
27.4	872.064210	504.925947	1376.990157	85.520194	112.438146
27.5	861.003349	493.625749	1354.629099	85.257566	111.012032
27.6	868.417053	483.653535	1352.070588	85.006824	111.967906
27.7	851.308130	475.851476	1327.159606	84.755091	109.761995
27.8	878.363971	469.849590	1348.213561	84.495120	113.250395
27.9	905.521522	466.564768	1372.086290	84.236796	116.751909
28	907.334141	467.901409	1375.235550	83.981969	116.985616
28.1	911.933191	473.412847	1385.346038	83.715937	117.578586
28.2	918.051005	481.447411	1399.498416	83.464886	118.367377
28.3	886.606339	491.873775	1378.480114	83.228710	114.313111
28.4	859.540376	506.596431	1366.136806	82.981537	110.823406
28.5	863.845751	522.368961	1386.214712	82.767692	111.378513
28.6	866.884260	540.421265	1407.305525	82.562125	111.770278
28.7	864.450860	559.508267	1423.959126	82.371262	111.456531
28.8	875.200914	577.170499	1452.371413	82.166646	112.842572
28.9	832.108397	593.989073	1426.097470	81.957876	107.286510
29	828.075659	609.599649	1437.675308	81.771484	106.766555
29.1	836.793319	624.539891	1461.333210	81.605113	107.890552
29.2	836.123083	636.692522	1472.815605	81.433907	107.804136
29.3	845.651928	646.340898	1491.992827	81.236535	109.032722
29.4	849.004558	653.318076	1502.322633	81.057929	109.464988
29.5	862.782321	657.589516	1520.371837	80.882101	111.241401
29.6	876.443071	657.801870	1534.244940	80.707329	113.002727
29.7	890.972866	653.941976	1544.914843	80.530498	114.876102
29.8	857.833869	646.629016	1504.462885	80.378310	110.603380
29.9	857.923471	636.216887	1494.140358	80.239264	110.614933
30	845.500159	623.160718	1468.660877	80.118932	109.013154
30.1	883.738800	606.025919	1489.764719	80.019661	113.943390
30.2	891.820731	586.565632	1478.386363	79.933155	114.985420
30.3	914.750473	565.659804	1480.410277	79.874419	117.941828
30.4	932.510011	546.361397	1478.871408	79.837227	120.231624
30.5	952.286285	529.361919	1481.648204	79.811370	122.781445
30.6	954.686201	516.090939	1470.777140	79.793121	123.090875
30.7	979.223908	505.433279	1484.657186	79.786562	126.254603
30.8	986.764341	498.400684	1485.165025	79.764791	127.226816
30.9	962.338056	492.752926	1455.090982	79.761394	124.077454
31	976.887395	486.081753	1462.969148	79.766030	125.953349
31.1	975.384037	481.414947	1456.798984	79.763991	125.759516
31.2	974.334268	480.434491	1454.768759	79.756352	125.624165
31.3	998.924619	481.584992	1480.509611	79.775054	128.794681
31.4	983.063742	485.779748	1468.843490	79.796118	126.749685
31.5	968.519015	491.361303	1459.880318	79.791053	124.874385
31.6	984.600473	499.154124	1483.754597	79.782715	126.947821
31.7	962.561922	512.650930	1475.212852	79.783495	124.106318
31.8	929.196939	531.714773	1460.911712	79.796270	119.804459
31.9	890.629781	552.680344	1443.310125	79.784731	114.831867
32	841.432010	575.486148	1416.918158	79.755914	108.488634
32.1	808.195179	598.337616	1406.532794	79.738907	104.203299
32.2	793.976458	620.013384	1413.989842	79.717245	102.370032
32.3	791.716803	640.124985	1431.841788	79.725117	102.078687
32.4	775.402347	656.966743	1432.369090	79.730749	99.975210
32.5	758.725354	670.826670	1429.552024	79.732741	97.824989
32.6	731.907711	683.041962	1414.949673	79.738873	94.367301
32.7	687.931559	691.697298	1379.628857	79.759545	88.697309
32.8	689.280582	696.401855	1385.682437	79.793542	88.871243
32.9	697.196297	693.599338	1390.795635	79.814258	89.891843
33	690.438271	685.218073	1375.656343	79.811342	89.020508
33.1	728.317341	671.349037	1399.666378	79.821903	93.904383
33.2	718.873188	652.368244	1371.241432	79.846497	92.686717
33.3	719.589908	629.121681	1348.711589	79.895392	92.779126
33.4	737.592542	605.266043	1342.858585	79.944740	95.100265
33.5	737.736142	580.789751	1318.525893	79.991295	95.118780
33.6	778.844771	555.041319	1333.886090	80.036326	100.419053
33.7	809.005049	527.005928	1336.010977	80.086835	104.307718
33.8	828.674057	500.325913	1328.999970	80.148324	106.843709
33.9	847.952436	475.869057	1323.821492	80.210188	109.329334
