#time	ekin		epot		etot		chain_length	temperature
0	880.545440	0.000609	880.546049	82.000061	113.531659
0.1	861.271335	10.548334	871.819669	81.684245	111.046584
0.2	821.968417	41.419101	863.387518	81.372073	105.979128
0.3	764.743722	90.696450	855.440173	81.065549	98.600958
0.4	692.632187	155.510209	848.142395	80.766619	89.303377
0.5	609.472418	232.152071	841.624489	80.477150	78.581311
0.6	519.912153	316.062361	835.974513	80.198913	67.034007
0.7	431.212833	400.012423	831.225256	79.933565	55.597708
0.8	367.792355	459.480221	827.272576	79.682637	47.420694
0.9	338.958720	484.784897	823.743617	79.447534	43.703078
1	311.236650	509.254911	820.491561	79.229555	40.128779
1.1	282.343527	535.179454	817.522981	79.029908	36.403492
1.2	253.269035	561.576308	814.845343	78.849705	32.654821
1.3	225.422867	587.030658	812.453525	78.689954	29.064522
1.4	200.244437	610.083560	810.327997	78.551546	25.818183
1.5	179.062121	629.373187	808.435309	78.435251	23.087076
1.6	163.008047	643.721597	806.729644	78.341710	21.017171
1.7	152.952983	652.202142	805.155125	78.271426	19.720738
1.8	149.459314	654.189366	803.648680	78.224758	19.270288
1.9	152.753606	649.389669	802.143275	78.201924	19.695032
2	162.718767	637.852564	800.571331	78.202991	20.979873
2.1	178.905957	619.962161	798.868118	78.227876	23.066941
2.2	200.565726	596.409204	796.974930	78.276350	25.859608
2.3	226.697149	568.144714	794.841863	78.348034	29.228819
2.4	256.112985	536.317026	792.430011	78.442406	33.021501
2.5	287.518299	502.194654	789.712953	78.558803	37.070693
2.6	319.599199	467.078186	786.677385	78.696426	41.206990
2.7	351.116956	432.205893	783.322850	78.854346	45.270680
2.8	380.999868	398.660643	779.660511	79.031514	49.123583
2.9	408.420129	367.290956	775.711085	79.226765	52.658969
3	432.837452	338.664693	771.502145	79.438827	55.807176
3.1	453.992126	313.073109	767.065235	79.666331	58.534718
3.2	471.842387	290.590943	762.433329	79.907819	60.836212
3.3	486.451158	271.188028	757.639186	80.161757	62.719769
3.4	497.832208	254.882832	752.715040	80.426538	64.187166
3.5	505.817157	241.876676	747.693833	80.700502	65.216692
3.6	510.058855	232.552307	742.611163	80.981941	65.763589
3.7	510.179692	227.326708	737.506401	81.269119	65.779169
3.8	505.933806	226.488338	732.422145	81.560282	65.231732
3.9	497.293688	230.108710	727.402397	81.853682	64.117733
4	484.470785	238.019456	722.490241	82.147590	62.464433
4.1	467.905823	249.819661	717.725484	82.440329	60.328658
4.2	448.248012	264.894451	713.142463	82.730302	57.794111
4.3	426.328990	282.439100	708.768090	83.016048	54.968018
4.4	403.137851	301.482303	704.620154	83.296321	51.977907
4.5	379.811557	320.894261	700.705819	83.570231	48.970370
4.6	357.651443	339.368633	697.020076	83.837493	46.113193
4.7	338.111992	355.432080	693.544072	84.098799	43.593906
4.8	322.538049	367.706503	690.244552	84.356095	41.585906
4.9	311.563011	375.514852	687.077863	84.612078	40.170858
5	304.799096	379.200067	683.999163	84.869017	39.298764
5.1	301.146650	379.824830	680.971480	85.128136	38.827841
5.2	299.349099	378.620958	677.970057	85.389759	38.596077
5.3	298.318877	376.663062	674.981939	85.653621	38.463247
5.4	297.089538	374.914799	672.004337	85.919106	38.304745
5.5	294.797382	374.246332	669.043714	86.185395	38.009209
5.6	290.867117	375.246772	666.113888	86.451555	37.502467
5.7	285.111809	378.120681	663.232490	86.716599	36.760416
5.8	277.676609	382.740671	660.417280	86.979518	35.801771
5.9	268.942552	388.740757	657.683309	87.239316	34.675660
6	259.445730	395.595258	655.040988	87.495022	33.451203
6.1	249.814840	402.680013	652.494853	87.745711	32.209460
6.2	240.720549	409.322360	650.042910	87.990512	31.036903
6.3	232.832267	414.844158	647.676425	88.228620	30.019840
6.4	226.780457	418.599685	645.380141	88.459304	29.239560
6.5	223.123848	420.008979	643.132827	88.681910	28.768102
6.6	222.321243	418.586898	640.908142	88.895870	28.664619
6.7	224.707391	413.968369	638.675760	89.100699	28.972273
6.8	230.472088	405.930627	636.402715	89.296006	29.715535
6.9	239.641903	394.413043	634.054947	89.481487	30.897830
7	252.065195	379.533812	631.599008	89.656929	32.499606
7.1	267.403463	361.600437	629.003899	89.822209	34.477220
7.2	285.134058	341.108879	626.242937	89.977292	36.763285
7.3	304.568962	318.726551	623.295512	90.122226	39.269092
7.4	324.890900	295.257680	620.148581	90.257140	41.889267
7.5	345.203637	271.594074	616.797711	90.382240	44.508256
7.6	364.590469	248.657118	613.247587	90.497801	47.007865
7.7	382.174879	227.337031	609.511909	90.604166	49.275081
7.8	397.178735	208.433964	605.612699	90.701735	51.209578
7.9	408.975074	192.603968	601.579041	90.790957	52.730520
8	417.133533	180.311813	597.445346	90.872329	53.782417
8.1	421.456843	171.792340	593.249183	90.946381	54.339836
8.2	422.006286	167.022535	589.028822	91.013675	54.410677
8.3	419.110651	165.709925	584.820576	91.074792	54.037333
8.4	413.338293	167.317931	580.656224	91.130329	53.293084
8.5	405.378286	171.182813	576.561099	91.180892	52.266774
8.6	395.813235	176.740748	572.553983	91.227092	51.033520
8.7	384.978967	183.670084	568.649051	91.269541	49.636622
8.8	373.056971	191.801059	564.858030	91.308845	48.099479
8.9	360.215012	200.975973	561.190985	91.345603	46.443722
9	346.673825	210.982245	557.656070	91.380392	44.697812
9.1	332.721777	221.537110	554.258887	91.413764	42.898928
9.2	318.701649	232.300219	551.001867	91.446231	41.091266
9.3	304.984714	242.899134	547.883847	91.478260	39.322696
9.4	291.946314	252.953600	544.899913	91.510258	37.641612
9.5	279.949223	262.092228	542.041451	91.542569	36.094787
9.6	269.330981	269.965350	539.296332	91.575462	34.725741
9.7	260.389297	276.259942	536.649239	91.609129	33.572860
9.8	253.364557	280.717593	534.082150	91.643681	32.667137
9.9	248.422441	283.152556	531.574997	91.679150	32.029933
10	245.640185	283.466305	529.106490	91.715494	31.671208
10.1	244.998833	281.656212	526.655045	91.752608	31.588516
10.2	246.382275	277.817477	524.199752	91.790339	31.766888
10.3	249.582495	272.138835	521.721331	91.828503	32.179503
10.4	254.309763	264.893237	519.203000	91.866898	32.789006
10.5	260.206665	256.424561	516.631226	91.905326	33.549313
10.6	266.865259	247.131060	513.996318	91.943596	34.407827
10.7	273.846768	237.446069	511.292837	91.981539	35.307977
10.8	280.703208	227.816587	508.519796	92.019009	36.192000
10.9	287.000131	218.680506	505.680637	92.055885	37.003884
11	292.339547	210.443439	502.782986	92.092072	37.692312
11.1	296.382049	203.456124	499.838173	92.127495	38.213526
11.2	298.867173	197.993371	496.860544	92.162104	38.533941
11.3	299.631304	194.235274	493.866577	92.195861	38.632463
11.4	298.622707	192.251134	490.873841	92.228746	38.502421
11.5	295.913649	191.986159	487.899808	92.260747	38.153133
11.6	291.709471	193.251100	484.960571	92.291859	37.611075
11.7	286.353181	195.716298	482.069480	92.322080	36.920470
11.8	280.319669	198.916115	479.235784	92.351411	36.142549
11.9	274.184522	202.278915	476.463437	92.379850	35.351524
12	268.544622	205.205816	473.750438	92.407391	34.624353
12.1	263.885883	207.203369	471.089251	92.434025	34.023687
12.2	260.455935	208.012660	468.468595	92.459735	33.581452
12.3	258.236825	207.639249	465.876074	92.484496	33.295335
12.4	257.032648	206.267817	463.300465	92.508277	33.140076
12.5	256.586360	204.146532	460.732892	92.531039	33.082535
12.6	256.654144	201.512880	458.167025	92.552738	33.091274
12.7	257.031602	198.567176	455.598779	92.573323	33.139941
12.8	257.553385	195.472528	453.025913	92.592740	33.207217
12.9	258.082698	192.364987	450.447686	92.610935	33.275463
13	258.498227	189.366410	447.864637	92.627853	33.329038
13.1	258.682449	186.596041	445.278490	92.643443	33.352791
13.2	258.514871	184.177287	442.692158	92.657660	33.331184
13.3	257.873165	182.236607	440.109772	92.670468	33.248447
13.4	256.643339	180.893318	437.536656	92.681843	33.089881
13.5	254.736990	180.242174	434.979164	92.691777	32.844089
13.6	252.110632	180.333690	432.444323	92.700276	32.505464
13.7	248.780923	181.158381	429.939304	92.707368	32.076154
13.8	244.831082	182.639697	427.470780	92.713101	31.566888
13.9	240.406842	184.637429	425.044271	92.717545	30.996456
14	235.703249	186.960331	422.663580	92.720790	30.390006
14.1	230.945528	189.384862	420.330390	92.722951	29.776577
14.2	226.367725	191.676346	418.044071	92.724160	29.186345
14.3	222.192572	193.609121	415.801693	92.724568	28.648029
14.4	218.615424	194.982800	413.598224	92.724341	28.186815
14.5	215.794227	195.632634	411.426861	92.723657	27.823069
14.6	213.845919	195.433507	409.279426	92.722704	27.571867
14.7	212.847815	194.298957	407.146772	92.721673	27.443178
14.8	212.841397	192.177763	405.019161	92.720761	27.442351
14.9	213.836048	189.050555	402.886604	92.720162	27.570595
15	215.811426	184.927741	400.739167	92.720069	27.825287
15.1	218.718318	179.848947	398.567266	92.720666	28.200082
15.2	222.478542	173.883410	396.361952	92.722134	28.684900
15.3	226.984658	167.130546	394.115204	92.724639	29.265889
15.4	232.100256	159.719966	391.820222	92.728339	29.925460
15.5	237.661450	151.810259	389.471709	92.733378	30.642483
15.6	243.480153	143.585977	387.066130	92.739885	31.392708
15.7	249.349444	135.252489	384.601933	92.747972	32.149455
15.8	255.050968	127.028729	382.079697	92.757733	32.884572
15.9	260.363984	119.138222	379.502207	92.769246	33.569597
16	265.075875	111.798547	376.874421	92.782566	34.177116
16.1	268.995097	105.208237	374.203334	92.797729	34.682435
16.2	271.969097	99.528578	371.497676	92.814746	35.065882
16.3	273.910153	94.857253	368.767406	92.833612	35.316149
16.4	274.830555	91.192337	366.022892	92.854297	35.434820
16.5	274.883933	88.389775	363.273709	92.876751	35.441702
16.6	274.395251	86.131794	360.527045	92.900907	35.378694
16.7	273.826749	83.959327	357.786075	92.926681	35.305396
16.8	273.601682	81.447651	355.049332	92.953975	35.276377
16.9	273.828910	78.483571	352.312481	92.982683	35.305674
17	274.201957	75.370280	349.572237	93.012689	35.353772
17.1	274.204650	72.625026	346.829676	93.043877	35.354120
17.2	273.374202	70.716734	344.090935	93.076131	35.247047
17.3	271.420145	69.945808	341.365954	93.109341	34.995104
17.4	268.227312	70.439364	338.666676	93.143404	34.583442
17.5	263.818870	72.186601	336.005470	93.178230	34.015046
17.6	258.315072	75.078885	333.393958	93.213741	33.305423
17.7	251.896323	78.945901	330.842224	93.249878	32.477833
17.8	244.771544	83.586844	328.358387	93.286599	31.559211
17.9	237.152497	88.795945	325.948441	93.323880	30.576862
18	229.235103	94.381228	323.616331	93.361718	29.556046
18.1	221.188167	100.176002	321.364169	93.400131	28.518528
18.2	213.148998	106.043541	319.192539	93.439155	27.482011
18.3	205.225207	111.875596	317.100803	93.478847	26.460370
18.4	197.501724	117.585642	315.087367	93.519282	25.464556
18.5	190.050785	123.099075	313.149860	93.560554	24.503881
18.6	182.941417	128.343796	311.285213	93.602772	23.587247
18.7	176.245651	133.244003	309.489654	93.646063	22.723939
18.8	170.040568	137.718098	307.758666	93.690565	21.923897
18.9	164.406856	141.680083	306.086939	93.736429	21.197524
19	159.425048	145.043308	304.468356	93.783818	20.555203
19.1	155.170526	147.725487	302.896013	93.832902	20.006653
19.2	151.708136	149.654168	301.362304	93.883858	19.560236
19.3	149.087063	150.771982	299.859044	93.936867	19.222292
19.4	147.336528	151.041131	298.377658	93.992114	18.996590
19.5	146.462835	150.446553	296.909388	94.049780	18.883942
19.6	146.448200	148.997335	295.445535	94.110047	18.882055
19.7	147.251642	146.726052	293.977694	94.173088	18.985645
19.8	148.811967	143.686010	292.497977	94.239067	19.186823
19.9	151.052539	139.946646	290.999185	94.308137	19.475707
20	153.887303	135.587640	289.474944	94.380433	19.841203
20.1	157.227337	130.692417	287.919754	94.456073	20.271845
20.2	160.987125	125.341872	286.328998	94.535150	20.756607
20.3	165.089467	119.609403	284.698870	94.617731	21.285535
20.4	169.467443	113.558847	283.026290	94.703856	21.850002
20.5	174.061303	107.247498	281.308801	94.793534	22.442304
20.6	178.808411	100.736139	279.544550	94.886738	23.054365
20.7	183.626704	94.105686	277.732390	94.983413	23.675603
20.8	188.396797	87.475373	275.872169	95.083469	24.290627
20.9	192.952107	81.013056	273.965163	95.186786	24.877958
21	197.085499	74.929030	272.014528	95.293213	25.410890
21.1	200.573408	69.452195	270.025603	95.402576	25.860598
21.2	203.209896	64.796005	268.005901	95.514677	26.200529
21.3	204.839855	61.124912	265.964767	95.629300	26.410685
21.4	205.383155	58.529580	263.912736	95.746215	26.480735
21.5	204.845365	57.015353	261.860718	95.865183	26.411396
21.6	203.312958	56.506194	259.819152	95.985959	26.213817
21.7	200.932185	56.865107	257.797291	96.108296	25.906856
21.8	197.873704	57.929064	255.802768	96.231954	25.512516
21.9	194.291310	59.550250	253.841560	96.356694	25.050626
22	190.289457	61.628877	251.918334	96.482293	24.534654
22.1	185.913355	64.123657	250.037013	96.608535	23.970429
22.2	181.164099	67.037209	248.201308	96.735223	23.358091
22.3	176.028092	70.386929	246.415021	96.862174	22.695889
22.4	170.505950	74.176087	244.682037	96.989224	21.983901
22.5	164.631499	78.374582	243.006081	97.116226	21.226488
22.6	158.479097	82.911242	241.390339	97.243051	20.433238
22.7	152.161862	87.675191	239.837053	97.369591	19.618736
22.8	145.824325	92.522848	238.347173	97.495752	18.801616
22.9	139.632181	97.287904	236.920085	97.621458	18.003243
23	133.760761	101.792702	235.553462	97.746650	17.246221
23.1	128.383216	105.860009	234.243224	97.871281	16.552876
23.2	123.659125	109.324494	232.983619	97.995318	15.943783
23.3	119.724216	112.043193	231.767409	98.118741	15.436442
23.4	116.681824	113.904332	230.586156	98.241540	15.044177
23.5	114.596622	114.833956	229.430578	98.363713	14.775324
23.6	113.490898	114.800056	228.290954	98.485268	14.632760
23.7	113.343454	113.814106	227.157560	98.606217	14.613749
23.8	114.090878	111.930218	226.021097	98.726580	14.710117
23.9	115.630880	109.242215	224.873096	98.846380	14.908675
24	117.827350	105.878936	223.706286	98.965645	15.191873
24.1	120.516958	101.997943	222.514900	99.084401	15.538653
24.2	123.517192	97.777716	221.294908	99.202680	15.925483
24.3	126.635735	93.408424	220.044160	99.320511	16.327568
24.4	129.680826	89.081611	218.762437	99.437922	16.720181
24.5	132.471989	84.979401	217.451390	99.554940	17.080055
24.6	134.850266	81.264109	216.114375	99.671591	17.386694
24.7	136.687082	78.069110	214.756192	99.787894	17.623521
24.8	137.891028	75.491718	213.382746	99.903866	17.778750
24.9	138.412174	73.588478	212.000652	100.017523	17.845943
25	138.243768	72.373038	210.616806	99.902537	17.824230
25.1	137.421427	71.816534	209.237961	99.787828	17.718203
25.2	136.020013	71.850300	207.870313	99.673401	17.537514
25.3	134.148443	72.370689	206.519133	99.559265	17.296206
25.4	131.942644	73.245818	205.188462	99.445440	17.011805
25.5	129.556781	74.324101	203.880883	99.331947	16.704188
25.6	127.152836	75.444552	202.597388	99.218817	16.394239
25.7	124.888660	76.448700	201.337360	99.106085	16.102311
25.8	122.904966	77.193713	200.098678	98.993794	15.846547
25.9	121.312373	77.565581	198.877954	98.881989	15.641209
26	120.180469	77.490422	197.670891	98.770721	15.495269
26.1	119.531256	76.941474	196.472730	98.660045	15.411563
26.2	119.338885	75.939852	195.278737	98.550018	15.386760
26.3	119.535858	74.548792	194.084650	98.440698	15.412157
26.4	120.023828	72.863218	192.887047	98.332145	15.475072
26.5	120.685946	70.997645	191.683591	98.224418	15.560441
26.6	121.398027	69.075133	190.473159	98.117576	15.652252
26.7	122.037239	67.218633	189.255872	98.011672	15.734668
26.8	122.488307	65.544734	188.033041	97.906757	15.792826
26.9	122.647951	64.159126	186.807077	97.802879	15.813409
27	122.428274	63.153074	185.581348	97.700076	15.785086
27.1	121.759572	62.600438	184.360010	97.598382	15.698867
27.2	120.592673	62.555145	183.147819	97.497821	15.548415
27.3	118.900740	63.049169	181.949909	97.398410	15.330269
27.4	116.680336	64.091232	180.771568	97.300155	15.043985
27.5	113.951624	65.666375	179.617999	97.203055	14.692163
27.6	110.757584	67.736506	178.494089	97.107099	14.280344
27.7	107.162234	70.241954	177.404188	97.012265	13.816784
27.8	103.247931	73.103979	176.351911	96.918525	13.312100
27.9	99.111836	76.228135	175.339971	96.825843	12.778819
28	94.861726	79.508330	174.370056	96.734174	12.230839
28.1	90.611347	82.831392	173.442739	96.643470	11.682823
28.2	86.475537	86.081911	172.557448	96.553679	11.149579
28.3	82.565449	89.147027	171.712476	96.464743	10.645439
28.4	78.984252	91.920790	170.905043	96.376607	10.183703
28.5	75.823696	94.307692	170.131389	96.289213	9.776202
28.6	73.161815	96.225091	169.386906	96.202507	9.432997
28.7	71.061766	97.604513	168.666278	96.116434	9.162230
28.8	69.571516	98.392120	167.963636	96.030947	8.970088
28.9	68.723927	98.548778	167.272705	95.946000	8.860805
29	68.536826	98.050128	166.586955	95.861553	8.836681
29.1	69.012821	96.886935	165.899756	95.777572	8.898053
29.2	70.138761	95.065768	165.204530	95.694026	9.043224
29.3	71.884944	92.609967	164.494911	95.610891	9.268366
29.4	74.204303	89.560615	163.764918	95.528149	9.567408
29.5	77.031974	85.977153	163.009128	95.445785	9.931989
29.6	80.285760	81.937094	162.222855	95.363791	10.351511
29.7	83.867906	77.534409	161.402315	95.282160	10.813369
29.8	87.668363	72.876403	160.544767	95.200892	11.303374
29.9	91.569316	68.079295	159.648611	95.119987	11.806337
30	95.450425	63.263020	158.713445	95.039451	12.306742
30.1	99.194176	58.545884	157.740060	94.959288	12.789436
30.2	102.690809	54.039576	156.730385	94.879506	13.240268
30.3	105.842507	49.844887	155.687394	94.800116	13.646627
30.4	108.566703	46.048258	154.614961	94.721125	13.997867
30.5	110.798498	42.719204	153.517702	94.642543	14.285620
30.6	112.492210	39.908577	152.400787	94.564381	14.503996
30.7	113.622109	37.647630	151.269740	94.486647	14.649677
30.8	114.182347	35.947899	150.130245	94.409349	14.721911
30.9	114.186046	34.801904	148.987950	94.332495	14.722388
31	113.663519	34.184762	147.848281	94.256091	14.655016
31.1	112.659586	34.056700	146.716286	94.180142	14.525576
31.2	111.230066	34.366443	145.596509	94.104652	14.341263
31.3	109.437656	35.055240	144.492896	94.029624	14.110162
31.4	107.347626	36.061122	143.408749	93.955058	13.840687
31.5	105.023857	37.322866	142.346722	93.880954	13.541076
31.6	102.525761	38.783092	141.308853	93.807313	13.218988
31.7	99.906455	40.390156	140.296611	93.734130	12.881272
31.8	97.212203	42.098770	139.310973	93.661403	12.533893
31.9	94.482904	43.869579	138.352484	93.589128	12.181996
32	91.753172	45.668144	137.421316	93.517299	11.830042
32.1	89.053598	47.463722	136.517319	93.445912	11.481977
32.2	86.411872	49.228179	135.640051	93.374961	11.141371
32.3	83.853640	50.935164	134.788804	93.304438	10.811529
32.4	81.403040	52.559580	133.962620	93.234337	10.495565
32.5	79.082994	54.077313	133.160308	93.164652	10.196434
32.6	76.915288	55.465164	132.380452	93.095375	9.916945
32.7	74.920484	56.700941	131.621425	93.026499	9.659748
32.8	73.117695	57.763707	130.881402	92.958017	9.427308
32.9	71.524230	58.634144	130.158374	92.889922	9.221857
33	70.155130	59.295040	129.450169	92.822205	9.045335
33.1	69.022601	59.731881	128.754482	92.754860	8.899314
33.2	68.135403	59.933496	128.068899	92.687878	8.784925
33.3	67.498207	59.892733	127.390940	92.621250	8.702769
33.4	67.111001	59.607100	126.718101	92.554967	8.652845
33.5	66.968579	59.079325	126.047904	92.489018	8.634482
33.6	67.060175	58.317774	125.377949	92.423393	8.646292
33.7	67.369311	57.336663	124.705974	92.358077	8.686150
33.8	67.873912	56.155998	124.029910	92.293056	8.751210
33.9	68.546752	54.801182	123.347934	92.228312	8.837961
34	69.356286	53.302232	122.658519	92.163826	8.942337
34.1	70.267837	51.692631	121.960468	92.099577	9.059866
34.2	71.245087	50.007855	121.252942	92.035539	9.185867
34.3	72.251754	48.283714	120.535468	91.971684	9.315660
34.4	73.253274	46.554650	119.807924	91.907983	9.444789
34.5	74.218359	44.852165	119.070524	91.844403	9.569220
34.6	75.120276	43.203491	118.323768	91.780910	9.685508
34.7	75.937769	41.630631	117.568400	91.717466	9.790910
34.8	76.655554	40.149791	116.805345	91.654036	9.883456
34.9	77.264397	38.771256	116.035653	91.590584	9.961956
35	77.760783	37.499650	115.260433	91.527073	10.025957
