#time	ekin		epot		etot		chain_length	temperature
0	880.545440	0.000609	880.546049	82.000061	113.531659
0.1	855.537038	10.513285	866.050322	81.684770	110.307242
0.2	810.992292	41.144596	852.136887	81.374158	104.563940
0.3	749.315080	89.797538	839.112618	81.070195	96.611691
0.4	673.774591	153.462319	827.236910	80.774779	86.872004
0.5	588.359339	228.349151	816.708490	80.489718	75.859131
0.6	497.735134	309.919011	807.654145	80.216715	64.174650
0.7	408.491822	391.619911	800.111733	79.957345	52.668212
0.8	339.493971	454.436900	793.930871	79.713053	43.772089
0.9	309.118813	479.420210	788.539023	79.485143	39.855719
1	282.071836	501.540445	783.612281	79.274803	36.368462
1.1	254.769855	524.368613	779.138469	79.083122	32.848327
1.2	227.898989	547.218645	775.117633	78.911089	29.383776
1.3	202.661142	568.871637	771.532779	78.759584	26.129777
1.4	180.286251	588.060096	768.346348	78.629372	23.244907
1.5	161.886771	603.614356	765.501127	78.521096	20.872601
1.6	148.378369	614.544544	762.922912	78.435269	19.130918
1.7	140.426795	620.097468	760.524263	78.372270	18.105695
1.8	138.413634	619.795340	758.208975	78.332341	17.846131
1.9	142.420050	613.456926	755.876976	78.315584	18.362692
2	152.228357	601.200993	753.429350	78.321959	19.627310
2.1	167.340967	583.432209	750.773176	78.351284	21.575829
2.2	187.015683	560.810242	747.825926	78.403239	24.112555
2.3	210.315669	534.203473	744.519142	78.477364	27.116700
2.4	236.171793	504.629384	740.801177	78.573066	30.450417
2.5	263.454336	473.184476	736.638812	78.689622	33.968046
2.6	291.050068	440.967561	732.017629	78.826185	37.526056
2.7	317.939022	409.002066	726.941088	78.981793	40.992938
2.8	343.262709	378.165678	721.428387	79.155371	44.258005
2.9	366.372656	349.138675	715.511332	79.345742	47.237648
3	386.847946	322.382691	709.230637	79.551638	49.877595
3.1	404.476043	298.156202	702.632245	79.771702	52.150445
3.2	419.199048	276.565206	695.764253	80.004503	54.048731
3.3	431.028552	257.646457	688.675009	80.248543	55.573948
3.4	439.939142	241.473682	681.412824	80.502269	56.722820
3.5	445.788442	228.238908	674.027351	80.764082	57.476990
3.6	448.328962	218.242620	666.571583	81.032351	57.804548
3.7	447.305570	211.797294	659.102865	81.305425	57.672598
3.8	442.562529	209.119559	651.682089	81.581652	57.061062
3.9	434.107445	210.263991	644.371436	81.859388	55.970920
4	422.131843	215.099590	637.231434	82.137023	54.426866
4.1	407.006227	223.311681	630.317908	82.412999	52.476670
4.2	389.261879	234.417261	623.679139	82.685841	50.188832
4.3	369.565137	247.788250	617.353387	82.954196	47.649265
4.4	348.689025	262.677853	611.366878	83.216891	44.957638
4.5	327.489066	278.243177	605.732242	83.473022	42.224257
4.6	306.887858	293.559415	600.447273	83.722095	39.568075
4.7	287.855400	307.638544	595.493943	83.964234	37.114156
4.8	271.327637	319.510509	590.838146	84.200399	34.983177
4.9	257.984277	328.447625	586.431902	84.432396	33.262773
5	247.979069	334.240943	582.220012	84.662398	31.972768
5.1	240.891181	337.258466	578.149647	84.892237	31.058903
5.2	235.929545	338.248924	574.178469	85.123040	30.419183
5.3	232.228337	338.050012	570.278349	85.355271	29.941974
5.4	229.088086	337.346367	566.434453	85.588913	29.537091
5.5	226.085140	336.556221	562.641361	85.823630	29.149911
5.6	223.050365	335.848118	558.898483	86.058886	28.758627
5.7	219.957687	335.248987	555.206674	86.294023	28.359878
5.8	216.820572	334.746238	551.566810	86.528314	27.955399
5.9	213.681232	334.298115	547.979346	86.761000	27.550634
6	210.646189	333.797349	544.443538	86.991315	27.159315
6.1	207.894625	333.061618	540.956243	87.218506	26.804547
6.2	205.656333	331.854537	537.510871	87.441845	26.515957
6.3	204.181056	329.915738	534.096793	87.660641	26.325744
6.4	203.709977	326.989276	530.699253	87.874252	26.265006
6.5	204.451351	322.848366	527.299716	88.082083	26.360594
6.6	206.559981	317.316619	523.876600	88.283599	26.632467
6.7	210.120632	310.285669	520.406301	88.478325	27.091554
6.8	215.136166	301.728312	516.864478	88.665850	27.738223
6.9	221.521559	291.705908	513.227467	88.845825	28.561513
7	229.104780	280.368973	509.473754	89.017968	29.539243
7.1	237.634787	267.950578	505.585365	89.182063	30.639045
7.2	246.795971	254.753104	501.549074	89.337956	31.820227
7.3	256.227575	241.129746	497.357321	89.485555	33.036275
7.4	265.546151	227.462626	493.008778	89.624829	34.237751
7.5	274.368952	214.139584	488.508536	89.755805	35.375304
7.6	282.336222	201.531681	483.867902	89.878563	36.402550
7.7	289.130599	189.973252	479.103851	89.993234	37.278572
7.8	294.492232	179.745953	474.238185	90.099995	37.969865
7.9	298.228933	171.067550	469.296483	90.199067	38.451651
8	300.221400	164.085523	464.306924	90.290711	38.708546
8.1	300.423360	158.875703	459.299063	90.375221	38.734585
8.2	298.855174	155.447482	454.302656	90.452928	38.532394
8.3	295.589939	153.756720	449.346659	90.524188	38.111396
8.4	290.738445	153.720034	444.458478	90.589389	37.485877
8.5	284.446051	155.217342	439.663393	90.648941	36.674578
8.6	276.903119	158.080784	434.983903	90.703280	35.702042
8.7	268.353463	162.085431	430.438894	90.752860	34.599707
8.8	259.089590	166.953175	426.042766	90.798152	33.405285
8.9	249.438505	172.366228	421.804733	90.839639	32.160938
9	239.746014	177.982370	417.728384	90.877807	30.911253
9.1	230.362438	183.449047	413.811485	90.913145	29.701397
9.2	221.628270	188.417757	410.046027	90.946132	28.575272
9.3	213.858345	192.560169	406.418514	90.977235	27.573469
9.4	207.325248	195.585288	402.910536	91.006903	26.731135
9.5	202.244046	197.255550	399.499596	91.035555	26.075999
9.6	198.760070	197.400111	396.160181	91.063578	25.626798
9.7	196.940358	195.924640	392.864998	91.091323	25.392177
9.8	196.768767	192.817562	389.586329	91.119093	25.370053
9.9	198.144880	188.152544	386.297424	91.147145	25.547480
10	200.887124	182.086769	382.973893	91.175685	25.901047
10.1	204.740507	174.854491	379.594998	91.204861	26.397876
10.2	209.389012	166.755767	376.144779	91.234774	26.997223
10.3	214.472128	158.140812	372.612940	91.265468	27.652606
10.4	219.604451	149.390978	368.995429	91.296943	28.314334
10.5	224.396947	140.897731	365.294677	91.329157	28.932246
10.6	228.478311	133.041173	361.519483	91.362032	29.458470
10.7	231.514935	126.169608	357.684544	91.395462	29.849992
10.8	233.228199	120.581481	353.809680	91.429321	30.070889
10.9	233.408125	116.510675	349.918801	91.463468	30.094088
11	231.922854	114.115820	346.038674	91.497753	29.902587
11.1	228.723811	113.473764	342.197575	91.532022	29.490124
11.2	223.846822	114.577063	338.423885	91.566121	28.861317
11.3	217.409723	117.334974	334.744697	91.599897	28.031360
11.4	209.607120	121.577375	331.184495	91.633203	27.025345
11.5	200.702828	127.061100	327.763928	91.665898	25.877285
11.6	191.020270	133.478468	324.498738	91.697847	24.628880
11.7	180.930600	140.468259	321.398859	91.728926	23.327985
11.8	170.837676	147.630068	318.467744	91.759016	22.026671
11.9	161.158399	154.543575	315.701974	91.788010	20.778690
12	152.296996	160.794254	313.091250	91.815810	19.636159
12.1	144.613693	166.005160	310.618853	91.842325	18.645526
12.2	138.392265	169.870390	308.262656	91.867478	17.843376
12.3	133.814750	172.181875	305.996625	91.891198	17.253182
12.4	130.951184	172.841438	303.792622	91.913427	16.883973
12.5	129.766202	171.856040	301.622242	91.934115	16.731189
12.6	130.137333	169.321090	299.458423	91.953226	16.779040
12.7	131.877258	165.399457	297.276715	91.970730	17.003375
12.8	134.754442	160.301746	295.056188	91.986613	17.374339
12.9	138.510019	154.269995	292.780014	92.000867	17.858559
13	142.871166	147.564652	290.435818	92.013501	18.420856
13.1	147.561913	140.453896	288.015809	92.024531	19.025649
13.2	152.312255	133.204501	285.516756	92.033989	19.638127
13.3	156.866011	126.073815	282.939826	92.041917	20.225258
13.4	160.987582	119.302710	280.290292	92.048372	20.756666
13.5	164.467722	113.109418	277.577140	92.053425	21.205372
13.6	167.128557	107.684033	274.812590	92.057158	21.548442
13.7	168.828158	103.183375	272.011534	92.059671	21.767577
13.8	169.464836	99.726061	269.190897	92.061075	21.849666
13.9	168.980983	97.387956	266.368939	92.061499	21.787281
14	167.365910	96.198581	263.564491	92.061082	21.579045
14.1	164.656979	96.139182	260.796161	92.059981	21.229773
14.2	160.938524	97.143018	258.081542	92.058364	20.750340
14.3	156.338371	99.098080	255.436451	92.056412	20.157227
14.4	151.022199	101.852050	252.874249	92.054316	19.471796
14.5	145.186235	105.219036	250.405271	92.052276	18.719345
14.6	139.048876	108.987511	248.036387	92.050500	17.928035
14.7	132.841758	112.928942	245.770700	92.049200	17.127731
14.8	126.800667	116.806741	243.607408	92.048590	16.348833
14.9	121.156469	120.385337	241.541806	92.048885	15.621107
15	116.126144	123.439303	239.565447	92.050295	14.972531
15.1	111.903918	125.762524	237.666442	92.053024	14.428145
15.2	108.652575	127.177342	235.829917	92.057267	14.008939
15.3	106.495149	127.543455	234.038604	92.063207	13.730775
15.4	105.507398	126.766173	232.273571	92.071011	13.603421
15.5	105.711654	124.803404	230.515058	92.080829	13.629756
15.6	107.072771	121.670639	228.743410	92.092793	13.805249
15.7	109.496939	117.443109	226.940048	92.107011	14.117805
15.8	112.834117	112.254312	225.088429	92.123569	14.548079
15.9	116.884671	106.290266	223.174937	92.142530	15.070330
16	121.410214	99.779412	221.189626	92.163933	15.653824
16.1	126.147734	92.979013	219.126747	92.187792	16.264648
16.2	130.825273	86.159760	216.985033	92.214099	16.867739
16.3	135.177261	79.590453	214.767714	92.242825	17.428855
16.4	138.958209	73.524090	212.482299	92.273919	17.916345
16.5	141.954179	68.185960	210.140139	92.307316	18.302626
16.6	143.992013	63.763810	207.755823	92.342932	18.565370
16.7	144.946512	60.399920	205.346432	92.380675	18.688437
16.8	144.745783	58.184917	202.930700	92.420439	18.662556
16.9	143.374970	57.153114	200.528084	92.462116	18.485813
17	140.878683	57.279116	198.157799	92.505594	18.163958
17.1	137.362511	58.475296	195.837807	92.550761	17.710606
17.2	132.994156	60.589641	193.583797	92.597510	17.147380
17.3	128.004284	63.403853	191.408137	92.645737	16.504019
17.4	122.685178	66.633653	189.318831	92.695346	15.818209
17.5	117.379753	69.938810	187.318564	92.746247	15.134163
17.6	112.445861	72.958242	185.404104	92.798358	14.498020
17.7	108.187124	75.379472	183.566596	92.851602	13.948927
17.8	104.781597	77.011504	181.793100	92.905909	13.509841
17.9	102.268754	77.800146	180.068900	92.961211	13.185851
18	100.599963	77.779483	178.379446	93.017439	12.970689
18.1	99.694088	77.017238	176.711327	93.074526	12.853891
18.2	99.461928	75.590636	175.052564	93.132401	12.823958
18.3	99.806920	73.585799	173.392719	93.190991	12.868439
18.4	100.619253	71.103813	171.723065	93.250216	12.973176
18.5	101.772643	68.264201	170.036844	93.309993	13.121886
18.6	103.126126	65.203403	168.329528	93.370232	13.296395
18.7	104.530075	62.068949	166.599024	93.430841	13.477411
18.8	105.834662	59.011082	164.845744	93.491721	13.645616
18.9	106.898937	56.173601	163.072538	93.552771	13.782836
19	107.599147	53.685325	161.284471	93.613888	13.873117
19.1	107.835418	51.653064	159.488481	93.674966	13.903580
19.2	107.536403	50.156534	157.692936	93.735898	13.865027
19.3	106.661809	49.245328	155.907137	93.796580	13.752263
19.4	105.202927	48.937867	154.140794	93.856907	13.564164
19.5	103.181359	49.222146	152.403504	93.916779	13.303517
19.6	100.646234	50.058039	150.704273	93.976097	12.976655
19.7	97.670194	51.380890	149.051084	94.034767	12.592944
19.8	94.344477	53.106069	147.450546	94.092702	12.164148
19.9	90.773453	55.134181	145.907633	94.149818	11.703724
20	87.068920	57.356588	144.425508	94.206039	11.226086
20.1	83.344510	59.660937	143.005447	94.261294	10.745885
20.2	79.710451	61.936404	141.646855	94.315520	10.277334
20.3	76.268936	64.078425	140.347361	94.368661	9.833608
20.4	73.110243	65.992741	139.102984	94.420669	9.426347
20.5	70.309719	67.598642	137.908361	94.471503	9.065266
20.6	67.925649	68.831361	136.757010	94.521127	8.757880
20.7	65.998016	69.643617	135.641633	94.569517	8.509344
20.8	64.548101	70.006318	134.554419	94.616650	8.322402
20.9	63.578880	69.908476	133.487356	94.662515	8.197437
21	63.076159	69.356369	132.432528	94.707105	8.132620
21.1	63.010403	68.371984	131.382387	94.750418	8.124141
21.2	63.339166	66.990821	130.329987	94.792461	8.166530
21.3	64.010048	65.259130	129.269179	94.833241	8.253029
21.4	64.964022	63.230723	128.194745	94.872775	8.376028
21.5	66.138921	60.963562	127.102483	94.911081	8.527512
21.6	67.472853	58.516377	125.989230	94.948181	8.699500
21.7	68.907193	55.945637	124.852830	94.984101	8.884434
21.8	70.388819	53.303243	123.692062	95.018869	9.075465
21.9	71.871235	50.635298	122.506533	95.052514	9.266598
22	73.314357	47.982215	121.296573	95.085069	9.452664
22.1	74.682961	45.380174	120.063135	95.116564	9.629123
22.2	75.944137	42.863599	118.807737	95.147032	9.791731
22.3	77.064532	40.467913	117.532445	95.176506	9.936187
22.4	78.008339	38.231560	116.239899	95.205016	10.057875
22.5	78.736952	36.196409	114.933361	95.232593	10.151818
22.6	79.210678	34.406072	113.616750	95.259265	10.212897
22.7	79.392235	32.902394	112.294629	95.285057	10.236306
22.8	79.251222	31.720914	110.972136	95.309995	10.218124
22.9	78.768523	30.886300	109.654823	95.334098	10.155888
23	77.939801	30.408643	108.348444	95.357386	10.049038
23.1	76.777549	30.281136	107.058686	95.379874	9.899185
23.2	75.311538	30.479345	105.790883	95.401575	9.710168
23.3	73.587720	30.962017	104.549736	95.422498	9.487910
23.4	71.665779	31.673284	103.339062	95.442650	9.240108
23.5	69.615569	32.546022	102.161592	95.462035	8.975767
23.6	67.512695	33.506142	101.018837	95.480656	8.704637
23.7	65.433543	34.477494	99.911037	95.498513	8.436565
23.8	63.450134	35.387052	98.837186	95.515605	8.180837
23.9	61.625232	36.169918	97.795150	95.531929	7.945547
24	60.008168	36.773686	96.781854	95.547483	7.737053
24.1	58.631848	37.161689	95.793537	95.562266	7.559600
24.2	57.511230	37.314806	94.826036	95.576275	7.415115
24.3	56.643414	37.231674	93.875088	95.589512	7.303224
24.4	56.009233	36.927387	92.936621	95.601980	7.221457
24.5	55.576025	36.430970	92.006995	95.613684	7.165602
24.6	55.301167	35.782038	91.083205	95.624634	7.130164
24.7	55.135929	35.027084	90.163012	95.634844	7.108859
24.8	55.029235	34.215780	89.245015	95.644335	7.095103
24.9	54.931082	33.397575	88.328657	95.653130	7.082448
25	54.795399	32.618788	87.414188	95.661261	7.064954
25.1	54.582305	31.920270	86.502575	95.668767	7.037479
25.2	54.259715	31.335672	85.595387	95.675692	6.995886
25.3	53.804345	30.890312	84.694657	95.682090	6.937174
25.4	53.202147	30.600579	83.802726	95.688022	6.859530
25.5	52.448241	30.473855	82.922096	95.693555	6.762327
25.6	51.546399	30.508876	82.055275	95.698768	6.646049
25.7	50.508168	30.696474	81.204642	95.703744	6.512186
25.8	49.351691	31.020636	80.372327	95.708576	6.363078
25.9	48.100313	31.459800	79.560114	95.713364	6.201734
26	46.781060	31.988301	78.769361	95.718214	6.031638
26.1	45.423065	32.577896	78.000960	95.723240	5.856547
26.2	44.056035	33.199274	77.255309	95.728562	5.680291
26.3	42.708831	33.823485	76.532316	95.734304	5.506592
26.4	41.408216	34.423206	75.831422	95.740594	5.338899
26.5	40.177841	34.973810	75.151651	95.747565	5.180263
26.6	39.037481	35.454179	74.491660	95.755350	5.033233
26.7	38.002560	35.847255	73.849815	95.764086	4.899797
26.8	37.083946	36.140316	73.224261	95.773908	4.781357
26.9	36.288019	36.324982	72.613001	95.784949	4.678735
27	35.616978	36.396989	72.013966	95.797341	4.592216
27.1	35.069342	36.355740	71.425083	95.811210	4.521607
27.2	34.640609	36.203718	70.844327	95.826680	4.466329
27.3	34.323986	35.945787	70.269772	95.843863	4.425506
27.4	34.111146	35.588472	69.699617	95.862866	4.398064
27.5	33.992924	35.139284	69.132208	95.883786	4.382821
27.6	33.959884	34.606162	68.566047	95.906706	4.378561
27.7	34.002701	33.997089	67.999791	95.931700	4.384082
27.8	34.112315	33.319937	67.432252	95.958826	4.398215
27.9	34.279840	32.582551	66.862392	95.988126	4.419814
28	34.496251	31.793068	66.289319	96.019628	4.447717
28.1	34.751908	30.960390	65.712298	96.053342	4.480679
28.2	35.036022	30.094742	65.130763	96.089260	4.517311
28.3	35.336202	29.208139	64.544341	96.127357	4.556014
28.4	35.638231	28.314648	63.952879	96.167589	4.594956
28.5	35.926185	27.430292	63.356478	96.209894	4.632083
28.6	36.182966	26.572546	62.755512	96.254193	4.665190
28.7	36.391217	25.759431	62.150648	96.300390	4.692041
28.8	36.534519	25.008314	61.542833	96.348371	4.710517
28.9	36.598704	24.334567	60.933271	96.398010	4.718793
29	36.573094	23.750282	60.323376	96.449166	4.715491
29.1	36.451516	23.263185	59.714702	96.501686	4.699816
29.2	36.232949	22.875915	59.108865	96.555410	4.671635
29.3	35.921743	22.585709	58.507452	96.610164	4.631510
29.4	35.527379	22.384557	57.911936	96.665774	4.580663
29.5	35.063797	22.259795	57.323592	96.722055	4.520892
29.6	34.548335	22.195097	56.743432	96.778823	4.454432
29.7	34.000387	22.171774	56.172161	96.835890	4.383783
29.8	33.439878	22.170277	55.610155	96.893069	4.311515
29.9	32.885703	22.171760	55.057463	96.950174	4.240063
30	32.354267	22.159571	54.513838	97.007021	4.171543
30.1	31.858271	22.120519	53.978790	97.063429	4.107593
30.2	31.405839	22.045814	53.451653	97.119222	4.049260
30.3	31.000073	21.931595	52.931668	97.174229	3.996943
30.4	30.639041	21.779026	52.418068	97.228287	3.950394
30.5	30.316187	21.593967	51.910154	97.281239	3.908767
30.6	30.021081	21.386293	51.407373	97.332936	3.870718
30.7	29.740434	21.168937	50.909370	97.383237	3.834533
30.8	29.459264	20.956764	50.416028	97.432014	3.798281
30.9	29.162120	20.765364	49.927484	97.479144	3.759969
31	28.834277	20.609850	49.444128	97.524520	3.717700
31.1	28.462838	20.503745	48.966584	97.568042	3.669809
31.2	28.037669	20.457997	48.495666	97.609624	3.614990
31.3	27.552147	20.480183	48.032330	97.649192	3.552390
31.4	27.003687	20.573924	47.577611	97.686683	3.481675
31.5	26.394016	20.738533	47.132548	97.722048	3.403068
31.6	25.729218	20.968900	46.698118	97.755252	3.317354
31.7	25.019527	21.255631	46.275158	97.786270	3.225851
31.8	24.278906	21.585400	45.864306	97.815092	3.130360
31.9	23.524411	21.941528	45.465939	97.841720	3.033081
32	22.775408	22.304721	45.080129	97.866169	2.936509
32.1	22.052645	22.653968	44.706613	97.888467	2.843321
32.2	21.377253	22.967525	44.344778	97.908652	2.756240
32.3	20.769713	23.223948	43.993661	97.926775	2.677908
32.4	20.248845	23.403127	43.651972	97.942898	2.610751
32.5	19.830861	23.487267	43.318127	97.957093	2.556859
32.6	19.528544	23.461757	42.990300	97.969440	2.517880
32.7	19.350583	23.315901	42.666484	97.980030	2.494935
32.8	19.301106	23.043460	42.344566	97.988962	2.488556
32.9	19.379423	22.642981	42.022403	97.996340	2.498654
33	19.580011	22.117894	41.697905	98.002275	2.524516
33.1	19.892725	21.476387	41.369112	98.006885	2.564835
33.2	20.303220	20.731050	41.034270	98.010288	2.617762
33.3	20.793571	19.898322	40.691894	98.012610	2.680984
33.4	21.343049	18.997773	40.340822	98.013975	2.751831
33.5	21.929000	18.051255	39.980256	98.014511	2.827379
33.6	22.527797	17.081986	39.609784	98.014344	2.904584
33.7	23.115800	16.113589	39.229389	98.013599	2.980397
33.8	23.670283	15.169160	38.839443	98.012401	3.051889
33.9	24.170287	14.270395	38.440682	98.010870	3.116356
34	24.597356	13.436816	38.034172	98.009124	3.171419
34.1	24.936136	12.685125	37.621261	98.007276	3.215099
34.2	25.174824	12.028700	37.203524	98.005433	3.245874
34.3	25.305446	11.477255	36.782702	98.003698	3.262716
34.4	25.323987	11.036646	36.360633	98.002165	3.265106
34.5	25.230366	10.708826	35.939192	98.000923	3.253035
34.6	25.028287	10.491936	35.520224	98.000055	3.226981
34.7	24.724969	10.380511	35.105479	97.999632	3.187873
34.8	24.330783	10.365781	34.696564	97.999723	3.137049
34.9	23.858818	10.436068	34.294886	98.000385	3.076197
35	23.324376	10.577241	33.901617	98.001668	3.007290
35.1	22.744416	10.773244	33.517660	98.003616	2.932513
35.2	22.136957	11.006666	33.143623	98.006262	2.854192
35.3	21.520453	11.259359	32.779812	98.009636	2.774704
35.4	20.913135	11.513089	32.426224	98.013757	2.696400
35.5	20.332353	11.750207	32.082560	98.018638	2.621518
35.6	19.793924	11.954319	31.748243	98.024288	2.552097
