#time	ekin		epot		etot		chain_length	temperature
0	733.787867	0.000609	733.788476	82.000061	94.609716
0.1	708.841719	10.486692	719.328411	81.685103	91.393326
0.2	664.697649	40.865427	705.563076	81.375747	85.701684
0.3	604.198998	88.650792	692.849790	81.074336	77.901391
0.4	531.161798	150.317122	681.478920	80.783107	68.484461
0.5	450.148060	221.508611	671.656671	80.504170	58.039090
0.6	366.285993	297.206205	663.492198	80.239482	47.226474
0.7	285.659739	371.324904	656.984643	79.990827	36.831063
0.8	219.506472	432.464917	651.971389	79.759798	28.301701
0.9	185.669822	462.311934	647.981756	79.547788	23.939029
1	167.051875	477.410263	644.462138	79.356010	21.538555
1.1	151.612878	489.666682	641.279560	79.185526	19.547954
1.2	138.697044	499.683922	638.380965	79.037255	17.882672
1.3	128.769674	506.942097	635.711771	78.911975	16.602703
1.4	122.395290	510.811179	633.206469	78.810316	15.780833
1.5	120.019553	510.769709	630.789263	78.732747	15.474521
1.6	121.897006	506.480279	628.377284	78.679580	15.716587
1.7	128.064326	497.820406	625.884733	78.650959	16.511761
1.8	138.338144	484.889141	623.227285	78.646857	17.836398
1.9	152.330832	467.995537	620.326369	78.667083	19.640522
2	169.480399	447.632568	617.112967	78.711271	21.851673
2.1	189.090596	424.440123	613.530719	78.778890	24.380081
2.2	210.376837	399.161312	609.538149	78.869248	27.124587
2.3	232.513384	372.596582	605.109966	78.981489	29.978726
2.4	254.677758	345.559668	600.237427	79.114610	32.836452
2.5	276.089652	318.838226	594.927878	79.267458	35.597159
2.6	296.042858	293.160719	589.203577	79.438748	38.169793
2.7	313.928994	269.170966	583.099960	79.627071	40.475912
2.8	329.250873	247.412657	576.663530	79.830901	42.451413
2.9	341.623176	228.326429	569.949605	80.048616	44.046615
3	350.761370	212.258807	563.020177	80.278507	45.224833
3.1	356.466254	199.475796	555.942051	80.518800	45.960383
3.2	358.615528	190.169717	548.785245	80.767666	46.237496
3.3	357.169338	184.452081	541.621419	81.023249	46.051033
3.4	352.186846	182.335225	534.522072	81.283680	45.408624
3.5	343.844044	183.712331	527.556376	81.547104	44.332959
3.6	332.443761	188.344962	520.788723	81.811703	42.863082
3.7	318.413693	195.862494	514.276186	82.075728	41.054139
3.8	302.292850	205.773290	508.066140	82.337526	38.975625
3.9	284.709313	217.484931	502.194244	82.595589	36.708521
4	266.352999	230.329935	496.682934	82.848598	34.341780
4.1	247.946729	243.593738	491.540467	83.095493	31.968598
4.2	230.217345	256.543211	486.760556	83.335562	29.682690
4.3	213.865097	268.457490	482.322587	83.568552	27.574340
4.4	199.523269	278.669260	478.192529	83.794782	25.725200
4.5	187.696043	286.628809	474.324852	84.015205	24.200277
4.6	178.680660	291.985226	470.665886	84.231301	23.037893
4.7	172.521689	294.636842	467.158531	84.444766	22.243797
4.8	169.041045	294.706084	463.747129	84.657148	21.795025
4.9	167.919193	292.461953	460.381145	84.869607	21.650381
5	168.770510	288.246685	457.017195	85.082864	21.760145
5.1	171.180599	282.439323	453.619922	85.297252	22.070885
5.2	174.715706	275.446758	450.162463	85.512795	22.526678
5.3	178.939504	267.687200	446.626704	85.729292	23.071267
5.4	183.450649	259.552329	443.002978	85.946383	23.652904
5.5	187.919704	251.369270	439.288973	86.163601	24.229114
5.6	192.104105	243.383997	435.488102	86.380407	24.768623
5.7	195.841020	235.766784	431.607803	86.596227	25.250436
5.8	199.029863	228.628259	427.658122	86.810464	25.661584
5.9	201.615116	222.035522	423.650638	87.022523	25.994909
6	203.574381	216.023314	419.597695	87.231819	26.247524
6.1	204.911999	210.599813	415.511811	87.437789	26.419987
6.2	205.656458	205.748716	411.405174	87.639897	26.515973
6.3	205.859662	201.429504	407.289166	87.837644	26.542173
6.4	205.596838	197.577062	403.173900	88.030566	26.508286
6.5	204.966599	194.101149	399.067748	88.218241	26.427027
6.6	204.090985	190.885893	394.976878	88.400288	26.314131
6.7	203.114984	187.789800	390.904784	88.576372	26.188292
6.8	202.203546	184.648307	386.851853	88.746200	26.070777
6.9	201.531003	181.284046	382.815049	88.909520	25.984064
7	201.254129	177.533834	378.787963	89.066127	25.948366
7.1	201.462256	173.299367	374.761623	89.215851	25.975200
7.2	202.117391	168.609064	370.726455	89.358563	26.059669
7.3	203.027257	163.647942	366.675199	89.494171	26.176981
7.4	203.888782	158.716897	362.605679	89.622614	26.288060
7.5	204.381597	154.140521	358.522118	89.743864	26.351601
7.6	204.252256	150.182329	354.434585	89.857921	26.334924
7.7	203.354572	147.002602	350.357173	89.964809	26.219183
7.8	201.650924	144.654871	346.305795	90.064576	25.999526
7.9	199.193572	143.102604	342.296176	90.157288	25.682691
8	196.101028	142.241270	338.342298	90.243031	25.283959
8.1	192.537031	141.918255	334.455286	90.321903	24.824441
8.2	188.693594	141.949091	330.642685	90.394018	24.328894
8.3	184.776233	142.131804	326.908037	90.459500	23.823816
8.4	180.989323	142.261441	323.250764	90.518485	23.335557
8.5	177.521046	142.145288	319.666335	90.571116	22.888380
8.6	174.528831	141.617908	316.146740	90.617546	22.502584
8.7	172.126662	140.554574	312.681236	90.657934	22.192864
8.8	170.375592	138.881727	309.257319	90.692447	21.967093
8.9	169.278451	136.583388	305.861839	90.721256	21.825635
9	168.779315	133.702865	302.482181	90.744537	21.761280
9.1	168.767814	130.339589	299.107403	90.762470	21.759797
9.2	169.087884	126.641364	295.729247	90.775239	21.801065
9.3	169.550164	122.792768	292.342932	90.783030	21.860668
9.4	169.946973	119.000700	288.947674	90.786031	21.911830
9.5	170.068627	115.478261	285.546888	90.784432	21.927515
9.6	169.719846	112.428222	282.148068	90.778423	21.882546
9.7	168.735069	110.027272	278.762341	90.768199	21.755575
9.8	166.991711	108.412022	275.403733	90.753956	21.530798
9.9	164.420829	107.667373	272.088202	90.735891	21.199326
10	161.015031	107.817450	268.832481	90.714212	20.760205
10.1	156.833485	108.819303	265.652789	90.689128	20.221064
10.2	152.003078	110.560405	262.563483	90.660860	19.598264
10.3	146.713546	112.862194	259.575740	90.629638	18.916267
10.4	141.204121	115.492296	256.696416	90.595707	18.205918
10.5	135.741165	118.186103	253.927268	90.559322	17.501561
10.6	130.590303	120.674383	251.264685	90.520755	16.837443
10.7	125.989834	122.710145	248.699979	90.480296	16.244289
10.8	122.131700	124.088432	246.220132	90.438247	15.746847
10.9	119.151935	124.656908	243.808843	90.394928	15.362656
11	117.128475	124.319193	241.447667	90.350672	15.101765
11.1	116.083211	123.033959	239.117171	90.305827	14.966995
11.2	115.986156	120.811850	236.798006	90.260750	14.954482
11.3	116.760596	117.711308	234.471903	90.215809	15.054333
11.4	118.288694	113.833854	232.122548	90.171377	15.251356
11.5	120.417506	109.318836	229.736342	90.127831	15.525830
11.6	122.965740	104.337304	227.303044	90.085549	15.854383
11.7	125.731634	99.084622	224.816256	90.044904	16.210999
11.8	128.502090	93.771655	222.273745	90.006265	16.568203
11.9	131.062898	88.614671	219.677569	89.969987	16.898376
12	133.209721	83.824270	217.033991	89.936413	17.175173
12.1	134.759229	79.593938	214.353167	89.905865	17.374957
12.2	135.559590	76.089033	211.648623	89.878641	17.478150
12.3	135.499293	73.437237	208.936530	89.855007	17.470376
12.4	134.513352	71.721481	206.234832	89.835192	17.343255
12.5	132.586138	70.976144	203.562282	89.819380	17.094773
12.6	129.750639	71.186814	200.937453	89.807703	16.729182
12.7	126.084457	72.293347	198.377804	89.800233	16.256489
12.8	121.703393	74.195455	195.898848	89.796979	15.691624
12.9	116.753722	76.759743	193.513465	89.797883	15.053447
13	111.404211	79.827160	191.231370	89.802833	14.363716
13.1	105.838537	83.220204	189.058742	89.811663	13.646115
13.2	100.248244	86.749751	186.997995	89.824178	12.925340
13.3	94.825927	90.221766	185.047693	89.840166	12.226223
13.4	89.758247	93.444346	183.202593	89.859418	11.572830
13.5	85.218556	96.235284	181.453840	89.881738	10.987513
13.6	81.359282	98.430028	179.789310	89.906949	10.489923
13.7	78.304534	99.889565	178.194099	89.934900	10.096065
13.8	76.143521	100.507641	176.651162	89.965462	9.817438
13.9	74.925395	100.216667	175.142063	89.998525	9.660381
14	74.655978	98.991833	173.647811	90.033996	9.625644
14.1	75.296737	96.853008	172.149745	90.071792	9.708259
14.2	76.766181	93.864226	170.630407	90.111835	9.897720
14.3	78.943647	90.130721	169.074368	90.154052	10.178468
14.4	81.675302	85.793656	167.468958	90.198366	10.530669
14.5	84.781946	81.022904	165.804850	90.244693	10.931219
14.6	88.068107	76.008372	164.076479	90.292945	11.354915
14.7	91.331838	70.950436	162.282273	90.343022	11.775718
14.8	94.374634	66.050045	160.424679	90.394811	12.168036
14.9	97.010974	61.499026	158.510000	90.448190	12.507948
15	99.077046	57.471000	156.548046	90.503019	12.774334
15.1	100.438344	54.113279	154.551622	90.559148	12.949850
15.2	100.995838	51.540041	152.535878	90.616413	13.021730
15.3	100.690488	49.827062	150.517550	90.674636	12.982360
15.4	99.505921	49.008209	148.514130	90.733630	12.829630
15.5	97.469176	49.073828	146.543004	90.793197	12.567026
15.6	94.649532	49.971059	144.620591	90.853130	12.203480
15.7	91.155608	51.605919	142.761527	90.913220	11.752996
15.8	87.131033	53.846880	140.977913	90.973252	11.234095
15.9	82.749192	56.529483	139.278675	91.033012	10.669129
16	78.207589	59.461428	137.669017	91.092288	10.083565
16.1	73.722360	62.427640	136.150001	91.150875	9.505270
16.2	69.523145	65.195076	134.718221	91.208576	8.963851
16.3	65.847660	67.517927	133.365587	91.265206	8.489958
16.4	62.933799	69.145438	132.079237	91.320592	8.114265
16.5	61.004936	69.836726	130.841663	91.374580	7.865570
16.6	60.243412	69.387830	129.631242	91.427034	7.767384
16.7	60.752063	67.671369	128.423432	91.477837	7.832966
16.8	62.516028	64.676731	127.192759	91.526894	8.060400
16.9	65.386614	60.528771	125.915384	91.574132	8.430514
17	69.099518	55.472141	124.571658	91.619497	8.909231
17.1	73.317217	49.830810	123.148028	91.662958	9.453033
17.2	77.674958	43.963075	121.638033	91.704502	10.014891
17.3	81.817615	38.224852	120.042466	91.744133	10.549018
17.4	85.425633	32.943268	118.368901	91.781871	11.014212
17.5	88.232807	28.397984	116.630791	91.817747	11.376150
17.6	90.038387	24.807892	114.846279	91.851805	11.608949
17.7	90.714641	22.322159	113.036800	91.884095	11.696141
17.8	90.210099	21.015483	111.225582	91.914676	11.631089
17.9	88.548375	20.887751	109.436127	91.943612	11.416837
18	85.822538	21.868218	107.690756	91.970969	11.065386
18.1	82.185216	23.824098	106.009314	91.996818	10.596414
18.2	77.835063	26.573045	104.408108	92.021236	10.035534
18.3	73.000683	29.898462	102.899145	92.044298	9.412221
18.4	67.923669	33.566032	101.489700	92.066087	8.757625
18.5	62.842637	37.339587	100.182224	92.086689	8.102511
18.6	57.979888	40.994649	98.974536	92.106193	7.475540
18.7	53.531424	44.328837	97.860261	92.124692	6.901985
18.8	49.660063	47.169362	96.829425	92.142287	6.402837
18.9	46.490764	49.378406	95.869170	92.159079	5.994209
19	44.107377	50.857170	94.964546	92.175176	5.686911
19.1	42.550485	51.548870	94.099356	92.190689	5.486176
19.2	41.816547	51.440484	93.257031	92.205733	5.391547
19.3	41.858698	50.562812	92.421510	92.220424	5.396982
19.4	42.589597	48.988484	91.578082	92.234882	5.491219
19.5	43.886424	46.827721	90.714145	92.249226	5.658423
19.6	45.597940	44.221914	89.819854	92.263574	5.879094
19.7	47.553253	41.335344	88.888598	92.278046	6.131199
19.8	49.571787	38.345513	87.917300	92.292755	6.391456
19.9	51.473806	35.432697	86.906503	92.307815	6.636689
20	53.090845	32.769405	85.860250	92.323331	6.845180
20.1	54.275364	30.510393	84.785757	92.339407	6.997904
20.2	54.909047	28.783867	83.692914	92.356137	7.079606
20.3	54.909244	27.684382	82.593627	92.373609	7.079632
20.4	54.233221	27.267840	81.501061	92.391904	6.992470
20.5	52.879993	27.548829	80.428822	92.411093	6.817994
20.6	50.889721	28.500397	79.390117	92.431237	6.561381
20.7	48.340758	30.056208	78.396966	92.452391	6.232735
20.8	45.344601	32.114874	77.459476	92.474595	5.846431
20.9	42.039095	34.546155	76.585250	92.497881	5.420241
21	38.580330	37.198607	75.778938	92.522271	4.974291
21.1	35.133738	39.908219	75.041957	92.547774	4.529910
21.2	31.864867	42.507537	74.372403	92.574390	4.108443
21.3	28.930347	44.834785	73.765132	92.602107	3.730086
21.4	26.469503	46.742525	73.212027	92.630902	3.412801
21.5	24.596998	48.105426	72.702424	92.660741	3.171373
21.6	23.396878	48.826780	72.223658	92.691582	3.016637
21.7	22.918275	48.843456	71.761731	92.723371	2.954930
21.8	23.172989	48.129041	71.302030	92.756046	2.987771
21.9	24.135064	46.695023	70.830087	92.789535	3.111814
22	25.742374	44.589943	70.332317	92.823759	3.319050
22.1	27.900142	41.896572	69.796714	92.858632	3.597258
22.2	30.486166	38.727284	69.213450	92.894061	3.930683
22.3	33.357473	35.217888	68.575361	92.929947	4.300890
22.4	36.357985	31.520302	67.878287	92.966189	4.687756
22.5	39.326781	27.794470	67.121252	93.002678	5.070533
22.6	42.106477	24.199999	66.306477	93.039307	5.428928
22.7	44.551290	20.887937	65.439227	93.075964	5.744146
22.8	46.534369	17.993139	64.527507	93.112538	5.999831
22.9	47.954027	15.627587	63.581614	93.148919	6.182873
23	48.738593	13.874994	62.613587	93.184996	6.284029
23.1	48.849642	12.786926	61.636568	93.220664	6.298347
23.2	48.283483	12.380640	60.664123	93.255819	6.225350
23.3	47.070820	12.638726	59.709546	93.290363	6.068998
23.4	45.274632	13.510556	58.785188	93.324204	5.837409
23.5	42.986343	14.915505	57.901848	93.357256	5.542372
23.6	40.320473	16.747783	57.068256	93.389442	5.198653
23.7	37.408000	18.882677	56.290676	93.420693	4.823138
23.8	34.388748	21.183902	55.572650	93.450952	4.433856
23.9	31.403204	23.511698	54.914902	93.480170	4.048920
24	28.584248	25.731161	54.315409	93.508311	3.685462
24.1	26.049412	27.720222	53.769634	93.535351	3.358638
24.2	23.894272	29.376625	53.270896	93.561278	3.080768
24.3	22.187593	30.623275	52.810867	93.586093	2.860720
24.4	20.968628	31.411507	52.380135	93.609807	2.703555
24.5	20.246690	31.722113	51.968802	93.632446	2.610473
24.6	20.002834	31.564240	51.567074	93.654044	2.579032
24.7	20.193237	30.972551	51.165789	93.674645	2.603581
24.8	20.753775	30.003098	50.756873	93.694304	2.675853
24.9	21.605322	28.728373	50.333694	93.713081	2.785646
25	22.659367	27.231941	49.891308	93.731042	2.921548
25.1	23.823629	25.602955	49.426584	93.748257	3.071660
25.2	25.007403	23.930830	48.938233	93.764800	3.224288
25.3	26.126422	22.300299	48.426721	93.780743	3.368567
25.4	27.107017	20.787084	47.894101	93.796161	3.494998
25.5	27.889424	19.454341	47.343764	93.811124	3.595876
25.6	28.430075	18.350064	46.780139	93.825699	3.665584
25.7	28.702837	17.505514	46.208351	93.839949	3.700752
25.8	28.699142	16.934730	45.633872	93.853933	3.700276
25.9	28.427113	16.635064	45.062177	93.867701	3.665202
26	27.909768	16.588658	44.498426	93.881298	3.598499
26.1	27.182507	16.764681	43.947189	93.894762	3.504731
26.2	26.290077	17.122152	43.412229	93.908125	3.389667
26.3	25.283259	17.613090	42.896349	93.921409	3.259855
26.4	24.215502	18.185803	42.401305	93.934632	3.122185
26.5	23.139711	18.788072	41.927783	93.947805	2.983480
26.6	22.105365	19.370074	41.475440	93.960933	2.850118
26.7	21.156090	19.886910	41.043000	93.974018	2.727725
26.8	20.327748	20.300640	40.628388	93.987053	2.620924
26.9	19.647094	20.581809	40.228903	94.000033	2.533165
27	19.130979	20.710426	39.841405	94.012948	2.466621
27.1	18.786100	20.676420	39.462520	94.025785	2.422155
27.2	18.609243	20.479596	39.088839	94.038531	2.399352
27.3	18.587997	20.129114	38.717111	94.051175	2.396612
27.4	18.701884	19.642532	38.344416	94.063704	2.411296
27.5	18.923837	19.044476	37.968313	94.076108	2.439913
27.6	19.221952	18.365001	37.586954	94.088378	2.478350
27.7	19.561417	17.637742	37.199159	94.100510	2.522119
27.8	19.906501	16.897958	36.804459	94.112500	2.566612
27.9	20.222511	16.180582	36.403093	94.124350	2.607356
28	20.477583	15.518383	35.995966	94.136065	2.640243
28.1	20.644230	14.940350	35.584580	94.147657	2.661729
28.2	20.700577	14.470356	35.170933	94.159138	2.668994
28.3	20.631216	14.126181	34.757396	94.170528	2.660051
28.4	20.427677	13.918903	34.346580	94.181850	2.633809
28.5	20.088520	13.852675	33.941195	94.193133	2.590080
28.6	19.619062	13.924848	33.543910	94.204407	2.529551
28.7	19.030808	14.126418	33.157226	94.215710	2.453705
28.8	18.340632	14.442726	32.783358	94.227081	2.364719
28.9	17.569789	14.854350	32.424139	94.238562	2.265331
29	16.742816	15.338125	32.080941	94.250202	2.158707
29.1	15.886395	15.868228	31.754623	94.262046	2.048286
29.2	15.028215	16.417283	31.445497	94.274147	1.937638
29.3	14.195880	16.957442	31.153322	94.286556	1.830322
29.4	13.415886	17.461427	30.877313	94.299325	1.729755
29.5	12.712664	17.903511	30.616175	94.312507	1.639086
29.6	12.107709	18.260442	30.368151	94.326154	1.561087
29.7	11.618799	18.512293	30.131092	94.340319	1.498050
29.8	11.259309	18.643226	29.902535	94.355050	1.451700
29.9	11.037646	18.642154	29.679799	94.370396	1.423120
30	10.956831	18.503258	29.460089	94.386401	1.412701
30.1	11.014273	18.226330	29.240603	94.403107	1.420107
30.2	11.201761	17.816889	29.018650	94.420553	1.444280
30.3	11.505710	17.286045	28.791755	94.438771	1.483470
30.4	11.907685	16.650081	28.557767	94.457791	1.535298
30.5	12.385186	15.929757	28.314943	94.477636	1.596863
30.6	12.912673	15.149353	28.062025	94.498325	1.664874
30.7	13.462793	14.335492	27.798285	94.519871	1.735803
30.8	14.007722	13.515826	27.523548	94.542278	1.806062
30.9	14.520553	12.717637	27.238190	94.565548	1.872183
31	14.976643	11.966462	26.943104	94.589674	1.930988
31.1	15.354832	11.284812	26.639644	94.614643	1.979750
31.2	15.638468	10.691074	26.329542	94.640433	2.016320
31.3	15.816163	10.198650	26.014813	94.667018	2.039231
31.4	15.882253	9.815388	25.697641	94.694364	2.047752
31.5	15.836939	9.543328	25.380267	94.722429	2.041909
31.6	15.686087	9.378782	25.064868	94.751165	2.022459
31.7	15.440735	9.312719	24.753454	94.780518	1.990825
31.8	15.116320	9.331447	24.447767	94.810426	1.948998
31.9	14.731681	9.417523	24.149204	94.840822	1.899405
32	14.307903	9.550858	23.858761	94.871632	1.844766
32.1	13.867072	9.709929	23.577001	94.902777	1.787928
32.2	13.430998	9.873048	23.304046	94.934173	1.731703
32.3	13.020002	10.019592	23.039594	94.965732	1.678712
32.4	12.651801	10.131159	22.782960	94.997361	1.631239
32.5	12.340585	10.192557	22.533141	95.028966	1.591113
32.6	12.096286	10.192604	22.288890	95.060449	1.559614
32.7	11.924120	10.124688	22.048808	95.091710	1.537417
32.8	11.824384	9.987057	21.811441	95.122649	1.524557
32.9	11.792534	9.782845	21.575379	95.153166	1.520451
33	11.819525	9.519821	21.339346	95.183163	1.523931
33.1	11.892407	9.209884	21.102291	95.212542	1.533328
33.2	11.995125	8.868325	20.863450	95.241209	1.546571
33.3	12.109503	8.512905	20.622408	95.269073	1.561319
33.4	12.216344	8.162776	20.379120	95.296048	1.575094
33.5	12.296601	7.837330	20.133931	95.322054	1.585442
33.6	12.332548	7.555004	19.887552	95.347016	1.590076
33.7	12.308892	7.332135	19.641027	95.370867	1.587026
33.8	12.213761	7.181912	19.395674	95.393547	1.574761
33.9	12.039505	7.113500	19.153005	95.415006	1.552293
34	11.783262	7.131379	18.914641	95.435199	1.519255
34.1	11.447256	7.234952	18.682208	95.454095	1.475933
34.2	11.038794	7.418441	18.457235	95.471670	1.423269
34.3	10.569964	7.671095	18.241059	95.487911	1.362821
34.4	10.057038	7.977693	18.034731	95.502814	1.296687
34.5	9.519626	8.319316	17.838942	95.516388	1.227397
34.6	8.979606	8.674358	17.653964	95.528648	1.157771
34.7	8.459910	9.019712	17.479622	95.539625	1.090764
34.8	7.983222	9.332059	17.315281	95.549354	1.029303
34.9	7.570667	9.589198	17.159865	95.557884	0.976111
35	7.240571	9.771333	17.011904	95.565272	0.933551
35.1	7.007356	9.862239	16.869596	95.571583	0.903482
35.2	6.880645	9.850253	16.730898	95.576891	0.887145
35.3	6.864624	9.729007	16.593631	95.581277	0.885079
35.4	6.957699	9.497885	16.455585	95.584829	0.897079
35.5	7.152486	9.162157	16.314643	95.587642	0.922194
35.6	7.436112	8.732780	16.168892	95.589814	0.958763
35.7	7.790836	8.225888	16.016724	95.591450	1.004498
35.8	8.194948	7.661980	15.856928	95.592656	1.056602
35.9	8.623896	7.064864	15.688759	95.593540	1.111908
36	9.051580	6.460401	15.511980	95.594213	1.167050
36.1	9.451740	5.875140	15.326880	95.594785	1.218644
