#time	ekin		epot		etot		chain_length	temperature
0	733.787867	0.000609	733.788476	82.000061	94.609716
0.1	714.549151	10.528649	725.077800	81.684473	92.129204
0.2	675.525949	41.192669	716.718618	81.373252	87.097813
0.3	619.218440	89.716052	708.934492	81.068787	79.837898
0.4	549.187150	152.725282	701.912432	80.773385	70.808530
0.5	469.852815	225.938546	695.791361	80.489238	60.579690
0.6	386.359071	304.293729	690.652800	80.218401	49.814563
0.7	305.281129	381.228934	686.510064	79.962772	39.360914
0.8	240.512841	442.748626	683.261467	79.724065	31.010122
0.9	211.950182	468.621791	680.571973	79.503812	27.327444
1	192.790800	485.355341	678.146141	79.303378	24.857161
1.1	175.510282	500.427650	675.937932	79.123989	22.629126
1.2	160.116130	513.810291	673.926422	78.966742	20.644306
1.3	147.392604	524.691869	672.084473	78.832591	19.003820
1.4	138.164414	532.210593	670.375007	78.722342	17.813998
1.5	133.116714	535.635069	668.751783	78.636643	17.163182
1.6	132.719412	534.442163	667.161574	78.575973	17.111956
1.7	137.189480	528.357532	665.547012	78.540642	17.688297
1.8	146.478018	517.371698	663.849716	78.530781	18.885899
1.9	160.278397	501.735059	662.013456	78.546342	20.665228
2	178.053223	481.933880	659.987103	78.587097	22.956996
2.1	199.077173	458.649980	657.727154	78.652636	25.667684
2.2	222.491515	432.708153	655.199668	78.742374	28.686573
2.3	247.364696	405.016811	652.381508	78.855549	31.893555
2.4	272.752555	376.508294	649.260849	78.991233	35.166896
2.5	297.751854	348.085146	645.837000	79.148334	38.390139
2.6	321.542663	320.576980	642.119643	79.325610	41.457567
2.7	343.417586	294.710062	638.127648	79.521672	44.277974
2.8	362.796880	271.090732	633.887613	79.735001	46.776611
2.9	379.227204	250.205122	629.432326	79.963957	48.895028
3	392.362074	232.437272	624.799346	80.206796	50.588550
3.1	401.930500	218.099403	620.029903	80.461683	51.822239
3.2	407.713013	207.455147	615.168159	80.726712	52.567798
3.3	409.544653	200.715948	610.260601	80.999926	52.803957
3.4	407.345981	198.009243	605.355223	81.279337	52.520475
3.5	401.164197	199.336054	600.500251	81.562951	51.723437
3.6	391.204763	204.537654	595.742418	81.848796	50.439334
3.7	377.844146	213.280822	591.124968	82.134954	48.716705
3.8	361.623999	225.061623	586.685622	82.419602	46.625388
3.9	343.231664	239.223041	582.454705	82.701063	44.254003
4	323.473114	254.980435	578.453550	82.977877	41.706467
4.1	303.243981	271.449271	574.693253	83.248907	39.098257
4.2	283.500797	287.672970	571.173767	83.513484	36.552703
4.3	265.222651	302.660730	567.883381	83.771610	34.196041
4.4	249.326915	315.471962	564.798876	84.024163	32.146550
4.5	236.496594	325.390627	561.887221	84.272882	30.492294
4.6	226.989713	332.119888	559.109601	84.519942	29.266540
4.7	220.608151	335.818770	556.426921	84.767283	28.443744
4.8	216.850864	336.953628	553.804491	85.016204	27.959305
4.9	215.140668	336.073653	551.214321	85.267311	27.738804
5	215.007996	333.626825	548.634821	85.520666	27.721698
5.1	216.124448	329.924683	546.049131	85.775944	27.865646
5.2	218.189298	325.254726	543.444024	86.032562	28.131874
5.3	220.841434	319.968798	540.810232	86.289777	28.473822
5.4	223.718075	314.424866	538.142941	86.546749	28.844717
5.5	226.559255	308.881901	535.441156	86.802588	29.211040
5.6	229.248201	303.457942	532.706143	87.056388	29.557735
5.7	231.792449	298.147340	529.939789	87.307254	29.885773
5.8	234.282186	292.861161	527.143348	87.554315	30.206783
5.9	236.845933	287.470787	524.316721	87.796744	30.537336
6	239.611753	281.846481	521.458233	88.033764	30.893942
6.1	242.678349	275.886480	518.564829	88.264659	31.289329
6.2	246.098297	269.534235	515.632532	88.488776	31.730274
6.3	249.873224	262.783818	512.657043	88.705532	32.216988
6.4	253.958787	255.675540	509.634326	88.914417	32.743753
6.5	258.276512	248.284587	506.561099	89.114991	33.300452
6.6	262.729690	240.705456	503.435147	89.306890	33.874615
6.7	267.220539	233.034898	500.255437	89.489818	34.453635
6.8	271.664877	225.357165	497.022042	89.663551	35.026658
6.9	275.998133	217.737792	493.735926	89.827932	35.585359
7	280.164292	210.234460	490.398752	89.982867	36.122516
7.1	284.083657	202.929303	487.012960	90.128321	36.627853
7.2	287.614062	195.968226	483.582289	90.264317	37.083040
7.3	290.542799	189.569824	480.112624	90.390927	37.460652
7.4	292.628505	183.984128	476.612634	90.508272	37.729569
7.5	293.639143	179.454693	473.093835	90.616519	37.859874
7.6	293.338188	176.232352	469.570540	90.715877	37.821070
7.7	291.520705	174.539098	466.059802	90.806600	37.586736
7.8	288.119617	174.460784	462.580402	90.888988	37.148223
7.9	283.243902	175.906949	459.150850	90.963384	36.519581
8	277.140866	178.646606	455.787472	91.030169	35.732696
8.1	270.146500	182.356545	452.503046	91.089764	34.830889
8.2	262.648495	186.657483	449.305978	91.142614	33.864146
8.3	255.059011	191.140842	446.199852	91.189191	32.885609
8.4	247.789969	195.393312	443.183281	91.229979	31.948387
8.5	241.227582	199.022481	440.250064	91.265471	31.102276
8.6	235.706394	201.683253	437.389647	91.296159	30.390411
8.7	231.484650	203.103251	434.587901	91.322531	29.846088
8.8	228.723517	203.104642	431.828159	91.345057	29.490086
8.9	227.472987	201.619491	429.092478	91.364185	29.328851
9	227.666767	198.696246	426.363013	91.380333	29.353835
9.1	229.127201	194.496191	423.623393	91.393883	29.542134
9.2	231.579763	189.280214	420.859977	91.405176	29.858351
9.3	234.675547	183.387347	418.062894	91.414505	30.257501
9.4	238.019405	177.207359	415.226764	91.422118	30.688635
9.5	241.201105	171.149968	412.351073	91.428215	31.098863
9.6	243.826935	165.613227	409.440162	91.432958	31.437420
9.7	245.549443	160.953402	406.502845	91.436469	31.659508
9.8	246.093123	157.458577	403.551699	91.438845	31.729607
9.9	245.273725	155.328349	400.602074	91.440164	31.623959
10	243.008849	154.662076	397.670925	91.440495	31.331941
10.1	239.318300	155.457278	394.775578	91.439903	30.856106
10.2	234.315323	157.617225	391.932548	91.438460	30.211056
10.3	228.193818	160.962678	389.156496	91.436249	29.421790
10.4	221.218686	165.240638	386.459323	91.433365	28.522463
10.5	213.722075	170.127272	383.849347	91.429920	27.555900
10.6	206.098269	175.232245	381.330514	91.426042	26.572937
10.7	198.784321	180.117434	378.901755	91.421878	25.629925
10.8	192.221499	184.335186	376.556685	91.417587	24.783759
10.9	186.806123	187.477718	374.283841	91.413344	24.085536
11	182.842374	189.225143	372.067517	91.409334	23.574477
11.1	180.509287	189.379797	369.889084	91.405753	23.273664
11.2	179.852433	187.876140	367.728572	91.402800	23.188974
11.3	180.798672	184.767527	365.566199	91.400681	23.310976
11.4	183.180993	180.202654	363.383647	91.399599	23.618136
11.5	186.762801	174.402246	361.165047	91.399756	24.079951
11.6	191.258222	167.639455	358.897677	91.401346	24.659560
11.7	196.348314	160.224150	356.572463	91.404559	25.315843
11.8	201.694206	152.490082	354.184289	91.409571	26.005106
11.9	206.949551	144.782610	351.732161	91.416546	26.682696
12	211.774984	137.444234	349.219218	91.425637	27.304855
12.1	215.855648	130.796894	346.652542	91.436979	27.830988
12.2	218.919888	125.122865	344.042753	91.450693	28.226071
12.3	220.755435	120.647952	341.403387	91.466884	28.462734
12.4	221.219791	117.530324	338.750116	91.485644	28.522605
12.5	220.243389	115.856494	336.099884	91.507045	28.396714
12.6	217.826159	115.643887	333.470046	91.531149	28.085053
12.7	214.029792	116.847789	330.877580	91.558002	27.595575
12.8	208.968923	119.369474	328.338397	91.587637	26.943060
12.9	202.804118	123.062632	325.866750	91.620074	26.148211
13	195.737875	127.736836	323.474712	91.655318	25.237137
13.1	188.012673	133.159011	321.171685	91.693363	24.241101
13.2	179.908658	139.055273	318.963931	91.734190	23.196223
13.3	171.738514	145.115634	316.854148	91.777765	22.142819
13.4	163.837894	151.003239	314.841134	91.824038	21.124166
13.5	156.550819	156.368769	312.919587	91.872948	20.184619
13.6	150.210411	160.869716	311.080127	91.924412	19.367129
13.7	145.116291	164.193257	309.309548	91.978335	18.710327
13.8	141.511189	166.080183	307.591372	92.034601	18.245509
13.9	139.560520	166.346131	305.906651	92.093077	17.994003
14	139.338773	164.896218	304.234991	92.153610	17.965412
14.1	140.824658	161.731018	302.555676	92.216032	18.156993
14.2	143.903764	156.945048	300.848812	92.280159	18.553992
14.3	148.375613	150.720788	299.096402	92.345793	19.130562
14.4	153.963693	143.319627	297.283320	92.412728	19.851052
14.5	160.330068	135.068081	295.398149	92.480749	20.671890
14.6	167.095969	126.337824	293.433793	92.549644	21.544240
14.7	173.866098	117.521726	291.387825	92.619202	22.417136
14.8	180.252302	109.010239	289.262541	92.689219	23.240530
14.9	185.893684	101.171066	287.064750	92.759506	23.967892
15	190.472625	94.332721	284.805346	92.829893	24.558271
15.1	193.727222	88.771488	282.498710	92.900230	24.977897
15.2	195.460669	84.701316	280.161984	92.970391	25.201396
15.3	195.547818	82.266430	277.814248	93.040280	25.212632
15.4	193.939066	81.536565	275.475630	93.109825	25.005210
15.5	190.661728	82.504667	273.166395	93.178979	24.582652
15.6	185.819480	85.086540	270.906020	93.247719	23.958325
15.7	179.591436	89.120848	268.712284	93.316036	23.155323
15.8	172.236728	94.363622	266.600350	93.383937	22.207056
15.9	164.134419	100.447219	264.581638	93.451434	21.162398
16	156.090802	106.570367	262.661169	93.518539	20.125307
16.1	151.248734	109.574374	260.823108	93.585268	19.501003
16.2	151.360999	107.649192	259.010191	93.651630	19.515478
16.3	153.043202	104.141407	257.184609	93.717631	19.732370
16.4	155.399889	99.934616	255.334505	93.783271	20.036226
16.5	158.251471	95.201563	253.453035	93.848549	20.403890
16.6	161.481170	90.053781	251.534951	93.913461	20.820306
16.7	164.941712	84.634842	249.576554	93.978004	21.266485
16.8	168.437716	79.138483	247.576199	94.042176	21.717236
16.9	171.730572	73.804282	245.534855	94.105977	22.141795
17	174.556179	68.900351	243.456530	94.169415	22.506110
17.1	176.649339	64.699096	241.348436	94.232500	22.775988
17.2	177.768534	61.452310	239.220845	94.295248	22.920290
17.3	177.716449	59.370233	237.086681	94.357681	22.913574
17.4	176.354380	58.606517	234.960897	94.419826	22.737958
17.5	173.610816	59.248895	232.859711	94.481714	22.384221
17.6	169.485304	61.314471	230.799775	94.543376	21.852305
17.7	164.048742	64.748576	228.797318	94.604849	21.151351
17.8	157.440767	69.426534	226.867301	94.666166	20.299363
17.9	149.864377	75.158246	225.022623	94.727360	19.322514
18	141.577204	81.696204	223.273408	94.788460	18.254021
18.1	132.878311	88.748113	221.626423	94.849490	17.132444
18.2	124.089960	95.994730	220.084690	94.910467	15.999332
18.3	115.536560	103.110766	218.647326	94.971398	14.896514
18.4	107.525979	109.783662	217.309641	95.032283	13.863683
18.5	100.337125	115.726289	216.063414	95.093108	12.936800
18.6	94.212529	120.684760	214.897290	95.153849	12.147136
18.7	89.352275	124.444976	213.797251	95.214468	11.520487
18.8	85.907670	126.839497	212.747167	95.274913	11.076362
18.9	83.975469	127.753941	211.729411	95.335119	10.827237
19	83.594081	127.131463	210.725544	95.395006	10.778064
19.1	84.742529	124.974496	209.717025	95.454482	10.926137
19.2	87.342230	121.343680	208.685910	95.513440	11.261325
19.3	91.261090	116.354437	207.615526	95.571762	11.766597
19.4	96.319177	110.171902	206.491079	95.629320	12.418753
19.5	102.295251	103.004936	205.300187	95.685976	13.189268
19.6	108.933594	95.099743	204.033337	95.741588	14.045171
19.7	115.950950	86.733308	202.684258	95.796008	14.949943
19.8	123.043910	78.206296	201.250206	95.849091	15.864462
19.9	129.897624	69.834533	199.732157	95.900698	16.748134
20	136.197027	61.937851	198.134878	95.950701	17.560337
20.1	141.641430	54.825418	196.466848	95.998987	18.262302
20.2	145.962235	48.777747	194.739981	96.045469	18.819398
20.3	148.942208	44.026916	192.969125	96.090087	19.203615
20.4	150.433783	40.737549	191.171332	96.132815	19.395929
20.5	150.373781	38.991151	189.364932	96.173662	19.388193
20.6	148.792601	38.775859	187.568459	96.212678	19.184326
20.7	145.816746	39.982757	185.799503	96.249952	18.800639
20.8	141.664202	42.409376	184.073578	96.285609	18.265238
20.9	136.632134	45.770958	182.403092	96.319812	17.616437
21	131.075888	49.720624	180.796512	96.352752	16.900051
21.1	125.377828	53.880014	179.257841	96.384650	16.165381
21.2	119.905887	57.880649	177.786536	96.415744	15.459866
21.3	114.966578	61.411381	176.377959	96.446293	14.823024
21.4	110.764574	64.259800	175.024374	96.476565	14.281246
21.5	107.384001	66.332308	173.716309	96.506833	13.845377
21.6	104.798338	67.645629	172.443967	96.537376	13.511999
21.7	102.901043	68.297344	171.198387	96.568466	13.267375
21.8	101.541156	68.431032	169.972188	96.600373	13.092040
21.9	100.552122	68.207792	168.759914	96.633356	12.964520
22	99.770491	67.787616	167.558107	96.667663	12.863742
22.1	99.046507	67.318686	166.365193	96.703528	12.770396
22.2	98.249847	66.931436	165.181283	96.741169	12.667680
22.3	97.273000	66.734919	164.007919	96.780788	12.541732
22.4	96.033630	66.814154	162.847783	96.822565	12.381936
22.5	94.476415	67.227971	161.704386	96.866662	12.181159
22.6	92.574312	68.007421	160.581732	96.913221	11.935915
22.7	90.328903	69.155077	159.483980	96.962361	11.646407
22.8	87.769532	70.645566	158.415098	97.014178	11.316418
22.9	84.950997	72.427554	157.378551	97.068748	10.953015
23	81.949834	74.427174	156.377008	97.126122	10.566065
23.1	78.859388	76.552727	155.412115	97.186329	10.167604
23.2	75.784018	78.700307	154.484324	97.249376	9.771086
23.3	72.832873	80.759930	153.592803	97.315245	9.390585
23.4	70.113687	82.621721	152.735408	97.383899	9.039991
23.5	67.727014	84.181730	151.908744	97.455275	8.732270
23.6	65.761234	85.347041	151.108275	97.529291	8.478815
23.7	64.288551	86.039949	150.328500	97.605843	8.288937
23.8	63.362054	86.201109	149.563162	97.684809	8.169481
23.9	63.013825	85.791670	148.805495	97.766045	8.124583
24	63.253988	84.794486	148.048474	97.849390	8.155548
24.1	64.070558	83.214532	147.285090	97.934665	8.260831
24.2	65.429932	81.078674	146.508606	98.021677	8.436099
24.3	67.277888	78.434926	145.712814	98.110215	8.674362
24.4	69.540965	75.351307	144.892273	98.200059	8.966149
24.5	72.128128	71.914403	144.042531	98.290972	9.299720
24.6	74.932740	68.227584	143.160325	98.382711	9.661328
24.7	77.834972	64.408780	142.243752	98.475023	10.035522
24.8	80.704946	60.587466	141.292412	98.567646	10.405558
24.9	83.407038	56.900465	140.307503	98.660315	10.753947
25	85.805687	53.486169	139.291856	98.752761	11.063213
25.1	87.772802	50.477090	138.249893	98.844712	11.316840
25.2	89.196384	47.991100	137.187485	98.935898	11.500387
25.3	89.989478	46.122227	136.111705	99.026048	11.602643
25.4	90.098279	44.932200	135.030479	99.114899	11.616671
25.5	89.508175	44.443973	133.952147	99.202189	11.540587
25.6	88.246766	44.638208	132.884974	99.287667	11.377950
25.7	86.383345	45.453294	131.836639	99.371088	11.137693
25.8	84.024757	46.789003	130.813760	99.452221	10.833592
25.9	81.307955	48.513528	129.821482	99.530846	10.483306
26	78.389845	50.473332	128.863177	99.606757	10.107064
26.1	75.435213	52.505060	127.940273	99.679765	9.726114
26.2	72.603782	54.448457	127.052239	99.749696	9.361048
26.3	70.037760	56.158959	126.196719	99.816398	9.030202
26.4	67.851373	57.518437	125.369811	99.879737	8.748304
26.5	66.123617	58.442829	124.566447	99.939600	8.525538
26.6	64.894787	58.886056	123.780843	99.995898	8.367101
26.7	64.166598	58.840367	123.006964	99.971309	8.273213
26.8	63.905225	58.333748	122.238973	99.921410	8.239514
26.9	64.046517	57.425107	121.471624	99.875294	8.257731
27	64.502749	56.197844	120.700593	99.832952	8.316554
27.1	65.170375	54.752335	119.922710	99.794352	8.402634
27.2	65.938220	53.197882	119.136102	99.759437	8.501635
27.3	66.695515	51.644720	118.340235	99.728127	8.599275
27.4	67.339244	50.196620	117.535864	99.700321	8.682273
27.5	67.780385	48.944519	116.724904	99.675892	8.739151
27.6	67.948768	47.961460	115.910228	99.654696	8.760861
27.7	67.796424	47.298995	115.095420	99.636567	8.741219
27.8	67.299389	46.985107	114.284496	99.621321	8.677135
27.9	66.457997	47.023618	113.481615	99.608754	8.568651
28	65.295799	47.394991	112.690790	99.598649	8.418805
28.1	63.857264	48.058360	111.915624	99.590770	8.233330
28.2	62.204469	48.954607	111.159075	99.584872	8.020230
28.3	60.413031	50.010243	110.423273	99.580695	7.789253
28.4	58.567540	51.141841	109.709381	99.577969	7.551308
28.5	56.756748	52.260766	109.017515	99.576417	7.317837
28.6	55.068779	53.277949	108.346728	99.575756	7.100201
28.7	53.586574	54.108466	107.695041	99.575698	6.909096
28.8	52.383776	54.675756	107.059531	99.575952	6.754015
28.9	51.521169	54.915299	106.436468	99.576231	6.642796
29	51.043794	54.777686	105.821480	99.576246	6.581247
29.1	50.978783	54.230981	105.209765	99.575716	6.572864
29.2	51.333980	53.262325	104.596306	99.574365	6.618661
29.3	52.097374	51.878739	103.976113	99.571929	6.717088
29.4	53.237396	50.107064	103.344459	99.568151	6.864075
29.5	54.704095	47.993011	102.697106	99.562791	7.053181
29.6	56.431209	45.599307	102.030517	99.555623	7.275864
29.7	58.339076	43.002956	101.342032	99.546436	7.521852
29.8	60.338307	40.291705	100.630011	99.535041	7.779619
29.9	62.334081	37.559844	99.893925	99.521265	8.036941
30	64.230841	34.903548	99.134389	99.504959	8.281496
30.1	65.937148	32.415999	98.353147	99.485993	8.501496
30.2	67.370417	30.182573	97.552990	99.464263	8.686292
30.3	68.461231	28.276397	96.737628	99.439685	8.826935
30.4	69.156981	26.754522	95.911503	99.412201	8.916640
30.5	69.424596	25.654979	95.079575	99.381776	8.951145
30.6	69.252203	24.994873	94.247075	99.348397	8.928917
30.7	68.649619	24.769627	93.419246	99.312077	8.851224
30.8	67.647660	24.953425	92.601085	99.272848	8.722038
30.9	66.296295	25.500808	91.797103	99.230768	8.547802
31	64.661766	26.349344	91.011109	99.185914	8.337057
31.1	62.822806	27.423234	90.246040	99.138382	8.099954
31.2	60.866168	28.637666	89.503834	99.088289	7.847678
31.3	58.881690	29.903675	88.785365	99.035767	7.591813
31.4	56.957186	31.133248	88.090434	98.980967	7.343680
31.5	55.173481	32.244347	87.417828	98.924053	7.113701
31.6	53.599924	33.165504	86.765429	98.865199	6.910817
31.7	52.290751	33.839620	86.130371	98.804596	6.742021
31.8	51.282592	34.226652	85.509244	98.742438	6.612036
31.9	50.593347	34.304964	84.898311	98.678932	6.523169
32	50.222447	34.071281	84.293728	98.614286	6.475348
32.1	50.152339	33.539427	83.691766	98.548717	6.466308
32.2	50.350833	32.738163	83.088996	98.482440	6.491901
32.3	50.773937	31.708510	82.482446	98.415673	6.546453
32.4	51.368840	30.500893	81.869732	98.348631	6.623156
32.5	52.076857	29.172283	81.249140	98.281527	6.714443
32.6	52.836247	27.783434	80.619681	98.214571	6.812354
32.7	53.584900	26.396213	79.981113	98.147962	6.908880
32.8	54.262879	25.071048	79.333926	98.081895	6.996294
32.9	54.814799	23.864509	78.679308	98.016552	7.067455
33	55.191971	22.827099	78.019071	97.952105	7.116085
33.1	55.354247	22.001314	77.355561	97.888711	7.137008
33.2	55.271468	21.420082	76.691550	97.826514	7.126335
33.3	54.924480	21.105624	76.030104	97.765640	7.081596
33.4	54.305648	21.068803	75.374451	97.706197	7.001808
33.5	53.418874	21.308967	74.727842	97.648277	6.887474
33.6	52.279141	21.814271	74.093412	97.591951	6.740524
33.7	50.911610	22.562445	73.474055	97.537273	6.564204
33.8	49.350362	23.521947	72.872309	97.484280	6.362907
33.9	47.636843	24.653413	72.290257	97.432990	6.141977
34	45.818110	25.911337	71.729447	97.383406	5.907482
34.1	43.944949	27.245891	71.190841	97.335517	5.665969
34.2	42.069951	28.604825	70.674776	97.289300	5.424219
34.3	40.245584	29.935376	70.180959	97.244721	5.188997
34.4	38.522347	31.186130	69.708478	97.201737	4.966815
34.5	36.947022	32.308810	69.255831	97.160298	4.763703
34.6	35.561078	33.259913	68.820991	97.120345	4.585008
34.7	34.399279	34.002189	68.401468	97.081819	4.435214
34.8	33.488518	34.505886	67.994403	97.044652	4.317786
34.9	32.846924	34.749742	67.596666	97.008775	4.235063
35	32.483281	34.721683	67.204964	96.974116	4.188178
35.1	32.396774	34.419183	66.815957	96.940598	4.177024
35.2	32.577082	33.849291	66.426373	96.908145	4.200272
35.3	33.004823	33.028294	66.033116	96.876676	4.255422
35.4	33.652327	31.981049	65.633377	96.846109	4.338907
