#time	ekin		epot		etot		chain_length	temperature
0	587.030294	0.000609	587.030902	82.000061	75.687773
0.1	565.003754	10.473025	575.476779	81.685208	72.847818
0.2	523.906136	40.652107	564.558243	81.376571	67.548965
0.3	467.018804	87.607300	554.626103	81.077075	60.214291
0.4	398.790893	147.162441	545.953334	80.789496	51.417439
0.5	324.493040	214.222061	538.715101	80.516424	41.837969
0.6	249.864520	283.111419	532.975939	80.260230	32.215866
0.7	180.956635	347.726019	528.682654	80.023026	23.331342
0.8	124.938189	400.714313	525.652502	79.806649	16.108697
0.9	88.846886	434.702379	523.549265	79.612636	11.455325
1	75.686972	446.249308	521.936280	79.442233	9.758574
1.1	73.174155	447.285087	520.459241	79.296414	9.434588
1.2	76.931450	442.036371	518.967821	79.175916	9.919028
1.3	86.243425	431.101567	517.344992	79.081243	11.119652
1.4	100.704463	414.779255	515.483718	79.012667	12.984162
1.5	119.791098	393.494815	513.285913	78.970229	15.445066
1.6	142.747959	367.918247	510.666206	78.953733	18.404970
1.7	168.579153	338.977619	507.556772	78.962748	21.735472
1.8	196.088038	307.823770	503.911807	78.996608	25.282284
1.9	223.944041	275.766864	499.710906	79.054421	28.873852
2	250.764167	244.196773	494.960940	79.135076	32.331860
2.1	275.199777	214.496466	489.696244	79.237258	35.482425
2.2	296.021019	187.956052	483.977071	79.359461	38.166977
2.3	312.192666	165.693777	477.886443	79.500012	40.252041
2.4	322.936505	148.589102	471.525607	79.657094	41.637280
2.5	327.776563	137.231846	465.008408	79.828767	42.261325
2.6	326.564597	131.890366	458.454963	80.012999	42.105062
2.7	319.484400	132.500618	451.985018	80.207697	41.192189
2.8	307.034776	138.676675	445.711451	80.410739	39.587017
2.9	289.992606	149.741697	439.734303	80.620005	37.389713
3	269.359045	164.776691	434.135736	80.833416	34.729360
3.1	246.293393	182.682795	428.976188	81.048967	31.755428
3.2	222.040115	202.251820	424.291935	81.264766	28.628372
3.3	197.854667	222.239465	420.094132	81.479069	25.510062
3.4	174.933203	241.436105	416.369308	81.690321	22.554721
3.5	154.350198	258.730990	413.081188	81.897193	19.900886
3.6	137.006818	273.166847	410.173665	82.098622	17.664746
3.7	123.591635	283.983045	407.574681	82.293846	15.935082
3.8	114.554025	290.646738	405.200763	82.482434	14.769832
3.9	110.089296	292.872681	402.961977	82.664316	14.194180
4	110.134171	290.632898	400.767069	82.839767	14.199966
4.1	114.372761	284.155835	398.528595	83.009364	14.746461
4.2	122.256652	273.911153	396.167805	83.173871	15.762958
4.3	133.044100	260.574831	393.618931	83.334095	17.153819
4.4	145.858017	244.974487	390.832504	83.490736	18.805960
4.5	159.753581	228.023806	387.777387	83.644292	20.597562
4.6	173.783155	210.658312	384.441467	83.795035	22.406442
4.7	187.051134	193.780014	380.831147	83.943041	24.117126
4.8	198.758611	178.211233	376.969844	84.088249	25.626610
4.9	208.241396	164.654266	372.895663	84.230529	26.849257
5	215.003540	153.654823	368.658363	84.369739	27.721123
5.1	218.745014	145.570689	364.315703	84.505768	28.203524
5.2	219.379890	140.549430	359.929321	84.638551	28.285381
5.3	217.041694	138.518683	355.560376	84.768084	27.983909
5.4	212.074698	139.190526	351.265225	84.894418	27.343498
5.5	205.012261	142.079139	347.091399	85.017654	26.432914
5.6	196.544954	146.529181	343.074135	85.137931	25.341196
5.7	187.481598	151.752004	339.233602	85.255417	24.172628
5.8	178.703947	156.869036	335.572982	85.370298	23.040896
5.9	171.108493	160.969066	332.077560	85.482765	22.061588
6	165.519054	163.196183	328.715237	85.593007	21.340923
6.1	162.573000	162.866129	325.439129	85.701202	20.961079
6.2	162.706544	159.485254	322.191798	85.807510	20.978297
6.3	166.132906	152.775644	318.908550	85.912080	21.420069
6.4	171.922473	143.608211	315.530684	86.015054	22.166538
6.5	178.765443	133.259281	312.024724	86.116592	23.048824
6.6	185.779854	122.599102	308.378955	86.216874	23.953216
6.7	192.301888	112.294941	304.596829	86.316097	24.794124
6.8	197.787102	102.906705	300.693807	86.414468	25.501350
6.9	201.790608	94.904631	296.695240	86.512204	26.017536
7	203.971342	88.663013	292.634355	86.609519	26.298705
7.1	204.104209	84.445855	288.550064	86.706623	26.315836
7.2	202.091667	82.392851	284.484518	86.803714	26.056352
7.3	197.969272	82.511220	280.480492	86.900978	25.524838
7.4	191.902263	84.676476	276.578739	86.998582	24.742598
7.5	184.172406	88.643105	272.815511	87.096671	23.745962
7.6	175.156072	94.064366	269.220438	87.195368	22.583456
7.7	165.295588	100.519320	265.814908	87.294767	21.312111
7.8	155.066566	107.544510	262.611076	87.394939	19.993249
7.9	144.944066	114.667467	259.611533	87.495923	18.688122
8	135.370374	121.439272	256.809646	87.597734	17.453754
8.1	126.726888	127.463614	254.190502	87.700354	16.339320
8.2	119.312191	132.420168	251.732359	87.803739	15.383319
8.3	113.327878	136.080579	249.408457	87.907817	14.611741
8.4	108.873001	138.316025	247.189026	88.012493	14.037359
8.5	105.947174	139.096148	245.043322	88.117643	13.660122
8.6	104.461464	138.480056	242.941520	88.223126	13.468565
8.7	104.255487	136.600832	240.856319	88.328778	13.442007
8.8	105.118675	133.645489	238.764164	88.434421	13.553301
8.9	106.813252	129.832773	236.646025	88.539862	13.771789
9	109.096089	125.391623	234.487712	88.644903	14.066122
9.1	111.736438	120.543362	232.279800	88.749336	14.406551
9.2	114.527170	115.490086	230.017255	88.852958	14.766370
9.3	117.288974	110.409936	227.698910	88.955572	15.122458
9.4	119.869747	105.457160	225.326907	89.056996	15.455206
9.5	122.143277	100.762895	222.906172	89.157076	15.748340
9.6	124.010650	96.433239	220.443889	89.255700	15.989106
9.7	125.404817	92.544091	217.948908	89.352820	16.168861
9.8	126.296114	89.134943	215.431057	89.448487	16.283779
9.9	126.695841	86.204509	212.900350	89.542899	16.335317
10	126.655503	83.710662	210.366165	89.636465	16.330116
10.1	126.258786	81.577724	207.836510	89.729878	16.278966
10.2	125.602854	79.714686	205.317540	89.824128	16.194395
10.3	124.771849	78.041706	202.813555	89.920424	16.087250
10.4	123.818042	76.509435	200.327477	90.019964	15.964273
10.5	122.762215	75.099294	197.861509	90.123710	15.828142
10.6	121.603422	73.814249	195.417671	90.232248	15.678735
10.7	120.324411	72.673758	192.998169	90.345791	15.513827
10.8	118.892081	71.713632	190.605712	90.464239	15.329152
10.9	117.258567	70.985257	188.243824	90.587259	15.118538
11	115.366426	70.550666	185.917093	90.714351	14.874578
11.1	113.158065	70.473211	183.631276	90.844901	14.589847
11.2	110.587668	70.805520	181.393188	90.978221	14.258437
11.3	107.633151	71.577186	179.210338	91.113574	13.877501
11.4	104.305664	72.784693	177.090357	91.250200	13.448477
11.5	100.654658	74.385619	175.040277	91.387327	12.977741
11.6	96.767454	76.298300	173.065753	91.524190	12.476550
11.7	92.763273	78.407091	171.170365	91.660035	11.960278
11.8	88.782695	80.572373	169.355068	91.794130	11.447049
11.9	84.974259	82.643650	167.617909	91.925773	10.956014
12	81.480292	84.473707	165.953999	92.054298	10.505526
12.1	78.423978	85.931796	164.355774	92.179079	10.111465
12.2	75.899216	86.914272	162.813488	92.299535	9.785939
12.3	73.964135	87.351730	161.315866	92.415136	9.536443
12.4	72.638467	87.212384	159.850851	92.525407	9.365520
12.5	71.904438	86.501937	158.406375	92.629928	9.270879
12.6	71.710527	85.260539	156.971066	92.728338	9.245877
12.7	71.977320	83.557556	155.534876	92.820338	9.280276
12.8	72.604684	81.484881	154.089564	92.905692	9.361164
12.9	73.479602	79.149434	152.629035	92.984226	9.473970
13	74.484095	76.665420	151.149515	93.055831	9.603483
13.1	75.502815	74.146761	149.649577	93.120460	9.734830
13.2	76.429950	71.700065	148.130015	93.178130	9.854368
13.3	77.175209	69.418385	146.593595	93.228916	9.950457
13.4	77.668706	67.375984	145.044689	93.272953	10.014085
13.5	77.864600	65.624236	143.488836	93.310433	10.039342
13.6	77.743441	64.188783	141.932225	93.341599	10.023721
13.7	77.313149	63.068016	140.381165	93.366745	9.968242
13.8	76.608617	62.232916	138.841533	93.386208	9.877404
13.9	75.689956	61.628297	137.318253	93.400367	9.758958
14	74.639390	61.175429	135.814819	93.409636	9.623505
14.1	73.556875	60.776019	134.332894	93.414460	9.483933
14.2	72.554503	60.317509	132.872012	93.415310	9.354694
14.3	71.749680	59.679718	131.429398	93.412674	9.250925
14.4	71.256990	58.742952	129.999943	93.407055	9.187401
14.5	71.178525	57.397828	128.576353	93.398960	9.177284
14.6	71.592604	55.556907	127.149511	93.388900	9.230673
14.7	72.541405	53.167668	125.709073	93.377374	9.353005
14.8	74.019122	50.225193	124.244315	93.364871	9.543532
14.9	75.963440	46.781743	122.745183	93.351856	9.794220
15	78.253498	42.949961	121.203459	93.338764	10.089484
15.1	80.716359	38.897521	119.613880	93.325994	10.407029
15.2	83.141735	34.833312	117.975048	93.313895	10.719741
15.3	85.302453	30.987520	116.289973	93.302765	10.998330
15.4	86.976993	27.589201	114.566194	93.292837	11.214234
15.5	87.970616	24.844825	112.815440	93.284277	11.342345
15.6	88.132633	22.920290	111.052924	93.277180	11.363234
15.7	87.368551	21.927770	109.296322	93.271569	11.264719
15.8	85.646801	21.917779	107.564580	93.267405	11.042728
15.9	83.000355	22.876274	105.876628	93.264598	10.701512
16	79.523778	24.726335	104.250113	93.263022	10.253266
16.1	75.366309	27.333919	102.700228	93.262538	9.717229
16.2	70.721509	30.517210	101.238719	93.263012	9.118360
16.3	65.814055	34.059070	99.873125	93.264329	8.485626
16.4	60.884409	37.721898	98.606307	93.266403	7.850030
16.5	56.172351	41.263946	97.436297	93.269186	7.242488
16.6	51.900565	44.455908	96.356473	93.272666	6.691713
16.7	48.259597	47.096463	95.356061	93.276864	6.222271
16.8	45.395346	49.025555	94.420901	93.281831	5.852973
16.9	43.400023	50.134419	93.534442	93.287643	5.595710
17	42.307145	50.371725	92.678870	93.294389	5.454801
17.1	42.090765	49.745535	91.836299	93.302171	5.426903
17.2	42.668881	48.321049	90.989930	93.311091	5.501441
17.3	43.910660	46.214449	90.125109	93.321251	5.661548
17.4	45.646864	43.583336	89.230200	93.332742	5.885402
17.5	47.682627	40.614605	88.297232	93.345646	6.147880
17.6	49.811561	37.510711	87.322271	93.360025	6.422371
17.7	51.830086	34.475420	86.305507	93.375925	6.682626
17.8	53.550936	31.700121	85.251056	93.393371	6.904501
17.9	54.814926	29.351596	84.166521	93.412366	7.067471
18	55.500282	27.562043	83.062325	93.432892	7.155836
18.1	55.529052	26.421845	81.950897	93.454909	7.159546
18.2	54.870342	25.975414	80.845756	93.478359	7.074616
18.3	53.540375	26.220193	79.760568	93.503165	6.903139
18.4	51.599494	27.108730	78.708223	93.529233	6.652895
18.5	49.146478	28.553533	77.700011	93.556454	6.336619
18.6	46.310621	30.434301	76.744923	93.584708	5.970983
18.7	43.242169	32.606972	75.849141	93.613866	5.575357
18.8	40.101776	34.913941	75.015717	93.643790	5.170456
18.9	37.049710	37.194770	74.244480	93.674341	4.776943
19	34.235512	39.296628	73.532141	93.705375	4.414099
19.1	31.788841	41.083764	72.872605	93.736750	4.098641
19.2	29.812112	42.445336	72.257448	93.768328	3.843775
19.3	28.375435	43.301078	71.676513	93.799973	3.658539
19.4	27.514117	43.604470	71.118587	93.831560	3.547487
19.5	27.228774	43.343327	70.572101	93.862971	3.510697
19.6	27.487802	42.537998	70.025800	93.894098	3.544094
19.7	28.231761	41.237589	69.469350	93.924846	3.640015
19.8	29.379080	39.514756	68.893836	93.955131	3.787943
19.9	30.832459	37.459684	68.292143	93.984882	3.975332
20	32.485427	35.173778	67.659205	94.014044	4.188454
20.1	34.228612	32.763511	66.992124	94.042573	4.413209
20.2	35.955474	30.334696	66.290169	94.070438	4.635859
20.3	37.567336	27.987336	65.554673	94.097621	4.843682
20.4	38.977662	25.811160	64.788822	94.124117	5.025520
20.5	40.115517	23.881869	63.997386	94.149930	5.172227
20.6	40.928177	22.258196	63.186373	94.175075	5.277006
20.7	41.382796	20.979853	62.362650	94.199576	5.335622
20.8	41.467070	20.066464	61.533534	94.223462	5.346488
20.9	41.188851	19.517537	60.706388	94.246773	5.310616
21	40.574732	19.313492	59.888223	94.269550	5.231435
21.1	39.667673	19.417682	59.085355	94.291841	5.114485
21.2	38.523797	19.779301	58.303098	94.313699	4.967002
21.3	37.208553	20.336995	57.545547	94.335176	4.797423
21.4	35.792442	21.022987	56.815429	94.356329	4.614839
21.5	34.346590	21.767458	56.114048	94.377215	4.428420
21.6	32.938418	22.502896	55.441313	94.397892	4.246860
21.7	31.627717	23.168142	54.795859	94.418417	4.077867
21.8	30.463400	23.711826	54.175226	94.438846	3.927748
21.9	29.481149	24.094957	53.576106	94.459233	3.801103
22	28.702120	24.292502	52.994622	94.479628	3.700660
22.1	28.132730	24.293891	52.426621	94.500079	3.627247
22.2	27.765449	24.102513	51.867963	94.520629	3.579892
22.3	27.580452	23.734333	51.314785	94.541316	3.556040
22.4	27.547883	23.215843	50.763726	94.562170	3.551840
22.5	27.630521	22.581579	50.212100	94.583219	3.562495
22.6	27.786606	21.871409	49.658015	94.604481	3.582620
22.7	27.972661	21.127775	49.100436	94.625968	3.606608
22.8	28.146159	20.393033	48.539192	94.647684	3.628978
22.9	28.267941	19.706994	47.974935	94.669626	3.644680
23	28.304308	19.104737	47.409045	94.691783	3.649369
23.1	28.228727	18.614783	46.843510	94.714137	3.639624
23.2	28.023111	18.257654	46.280765	94.736661	3.613113
23.3	27.678631	18.044883	45.723513	94.759322	3.568698
23.4	27.196042	17.978500	45.174542	94.782078	3.506476
23.5	26.585491	18.051036	44.636527	94.804882	3.427756
23.6	25.865784	18.246068	44.111852	94.827678	3.334962
23.7	25.063141	18.539309	43.602450	94.850403	3.231474
23.8	24.209424	18.900244	43.109668	94.872990	3.121402
23.9	23.339957	19.294222	42.634178	94.895365	3.009298
24	22.491030	19.684903	42.175933	94.917449	2.899843
24.1	21.697321	20.036847	41.734169	94.939159	2.797508
24.2	20.989447	20.318020	41.307467	94.960411	2.706239
24.3	20.391877	20.501977	40.893854	94.981116	2.629193
24.4	19.921431	20.569511	40.490942	95.001186	2.568537
24.5	19.586444	20.509648	40.096092	95.020536	2.525345
24.6	19.386612	20.319969	39.706581	95.039084	2.499581
24.7	19.313456	20.006324	39.319781	95.056752	2.490148
24.8	19.351237	19.582065	38.933302	95.073470	2.495019
24.9	19.478202	19.066934	38.545135	95.089181	2.511389
25	19.668039	18.485715	38.153754	95.103835	2.535866
25.1	19.891455	17.866734	37.758189	95.117401	2.564672
25.2	20.117829	17.240246	37.358075	95.129860	2.593859
25.3	20.316906	16.636752	36.953658	95.141212	2.619526
25.4	20.460480	16.085290	36.545769	95.151475	2.638038
25.5	20.524001	15.611772	36.135773	95.160685	2.646228
25.6	20.488038	15.237435	35.725474	95.168898	2.641591
25.7	20.339491	14.977512	35.317004	95.176187	2.622438
25.8	20.072463	14.840222	34.912686	95.182643	2.588010
25.9	19.688721	14.826164	34.514885	95.188376	2.538532
26	19.197677	14.928177	34.125854	95.193509	2.475220
26.1	18.615884	15.131700	33.747584	95.198178	2.400208
26.2	17.966060	15.415613	33.381673	95.202532	2.316424
26.3	17.275698	15.753515	33.029213	95.206730	2.227413
26.4	16.575376	16.115336	32.690712	95.210937	2.137118
26.5	15.896874	16.469179	32.366053	95.215323	2.049637
26.6	15.271248	16.783237	32.054485	95.220062	1.968973
26.7	14.726984	17.027676	31.754660	95.225327	1.898799
26.8	14.288370	17.176330	31.464700	95.231289	1.842247
26.9	13.974164	17.208130	31.182294	95.238114	1.801736
27	13.796637	17.108183	30.904821	95.245964	1.778846
27.1	13.761010	16.868471	30.629481	95.254990	1.774253
27.2	13.865293	16.488153	30.353446	95.265334	1.787698
27.3	14.100503	15.973492	30.073995	95.277123	1.818025
27.4	14.451220	15.337434	29.788654	95.290472	1.863244
27.5	14.896455	14.598860	29.495315	95.305481	1.920650
27.6	15.410764	13.781570	29.192334	95.322232	1.986961
27.7	15.965585	12.913028	28.878613	95.340788	2.058496
27.8	16.530706	12.022936	28.553642	95.361196	2.131359
27.9	17.075830	11.141688	28.217518	95.383482	2.201644
28	17.572132	10.298802	27.870934	95.407652	2.265634
28.1	17.993728	9.521403	27.515131	95.433694	2.319991
28.2	18.318983	8.832846	27.151828	95.461575	2.361927
28.3	18.531555	8.251570	26.783125	95.491243	2.389335
28.4	18.621148	7.790239	26.411387	95.522627	2.400887
28.5	18.583907	7.455218	26.039126	95.555638	2.396085
28.6	18.422455	7.246406	25.668860	95.590172	2.375269
28.7	18.145577	7.157422	25.302998	95.626106	2.339570
28.8	17.767584	7.176129	24.943713	95.663304	2.290834
28.9	17.307397	7.285447	24.592844	95.701617	2.231500
29	16.787406	7.464411	24.251816	95.740882	2.164456
29.1	16.232171	7.689412	23.921583	95.780929	2.092868
29.2	15.667029	7.935566	23.602595	95.821577	2.020002
29.3	15.116660	8.178143	23.294803	95.862640	1.949041
29.4	14.603686	8.393993	22.997679	95.903924	1.882902
29.5	14.147365	8.562912	22.710277	95.945236	1.824067
29.6	13.762433	8.668875	22.431308	95.986377	1.774436
29.7	13.458184	8.701057	22.159241	96.027151	1.735209
29.8	13.237857	8.654562	21.892419	96.067365	1.706801
29.9	13.098406	8.530780	21.629186	96.106827	1.688821
30	13.030707	8.337297	21.368003	96.145354	1.680092
30.1	13.020231	8.087344	21.107575	96.182768	1.678742
30.2	13.048155	7.798782	20.846937	96.218901	1.682342
30.3	13.092830	7.492706	20.585536	96.253597	1.688102
30.4	13.131504	7.191760	20.323264	96.286711	1.693089
30.5	13.142131	6.918332	20.060463	96.318113	1.694459
30.6	13.105136	6.692761	19.797897	96.347686	1.689689
30.7	13.004963	6.531717	19.536680	96.375332	1.676773
30.8	12.831295	6.446894	19.278189	96.400969	1.654382
30.9	12.579838	6.444110	19.023948	96.424534	1.621961
31	12.252624	6.522878	18.775502	96.445984	1.579772
31.1	11.857801	6.676494	18.534295	96.465295	1.528866
31.2	11.408949	6.892602	18.301551	96.482464	1.470994
31.3	10.923975	7.154204	18.078179	96.497508	1.408465
31.4	10.423694	7.441001	17.864695	96.510464	1.343962
31.5	9.930200	7.730986	17.661186	96.521390	1.280334
31.6	9.465177	8.002120	17.467297	96.530362	1.220377
31.7	9.048269	8.233988	17.282257	96.537476	1.166624
31.8	8.695642	8.409294	17.104937	96.542844	1.121158
31.9	8.418825	8.515100	16.933925	96.546594	1.085467
32	8.223926	8.543710	16.767636	96.548869	1.060338
32.1	8.111252	8.493167	16.604419	96.549824	1.045811
32.2	8.075355	8.367318	16.442673	96.549626	1.041183
32.3	8.105501	8.175461	16.280963	96.548448	1.045069
32.4	8.186505	7.931608	16.118113	96.546472	1.055513
32.5	8.299893	7.653394	15.953286	96.543883	1.070133
32.6	8.425295	7.360742	15.786037	96.540869	1.086301
32.7	8.541985	7.074347	15.616332	96.537617	1.101347
32.8	8.630445	6.814101	15.444546	96.534312	1.112752
32.9	8.673846	6.597569	15.271416	96.531135	1.118348
33	8.659341	6.438638	15.097979	96.528260	1.116478
33.1	8.579050	6.346432	14.925482	96.525854	1.106126
33.2	8.430688	6.324584	14.755272	96.524074	1.086997
33.3	8.217753	6.370933	14.588686	96.523062	1.059542
33.4	7.949275	6.477658	14.426933	96.522951	1.024927
33.5	7.639138	6.631855	14.270994	96.523859	0.984940
33.6	7.305022	6.816506	14.121528	96.525885	0.941861
33.7	6.967044	7.011775	13.978819	96.529116	0.898284
33.8	6.646210	7.196522	13.842732	96.533619	0.856918
33.9	6.362784	7.349937	13.712721	96.539443	0.820375
34	6.134706	7.453145	13.587851	96.546621	0.790968
34.1	5.976182	7.490686	13.466868	96.555167	0.770529
34.2	5.896535	7.451742	13.348277	96.565074	0.760260
34.3	5.899421	7.331034	13.230455	96.576320	0.760632
34.4	5.982461	7.129304	13.111765	96.588866	0.771339
34.5	6.137315	6.853361	12.990676	96.602652	0.791304
34.6	6.350211	6.515673	12.865884	96.617607	0.818754
34.7	6.602876	6.133526	12.736402	96.633641	0.851331
34.8	6.873834	5.727813	12.601646	96.650652	0.886266
34.9	7.139951	5.321530	12.461480	96.668527	0.920578
35	7.378151	4.938084	12.316234	96.687141	0.951290
35.1	7.567148	4.599535	12.166683	96.706360	0.975658
35.2	7.689082	4.324914	12.013996	96.726042	0.991379
35.3	7.730916	4.128739	11.859655	96.746044	0.996773
35.4	7.685496	4.019847	11.705343	96.766216	0.990917
35.5	7.552168	4.000654	11.552823	96.786409	0.973726
35.6	7.336911	4.066892	11.403804	96.806476	0.945972
35.7	7.051952	4.207860	11.259812	96.826271	0.909232
35.8	6.714896	4.407178	11.122074	96.845656	0.865774
35.9	6.347436	4.643984	10.991420	96.864499	0.818396
36	5.973719	4.894500	10.868219	96.882676	0.770212
36.1	5.618525	5.133822	10.752348	96.900076	0.724415
36.2	5.305364	5.337833	10.643197	96.916598	0.684038
36.3	5.054664	5.485052	10.539716	96.932157	0.651715
36.4	4.882181	5.558307	10.440488	96.946679	0.629476
36.5	4.797750	5.546090	10.343840	96.960109	0.618590
