#time	ekin		epot		etot		chain_length	temperature
0	733.787867	0.000609	733.788476	82.000061	94.609716
0.1	711.689718	10.507646	722.197364	81.684788	91.760528
0.2	670.089982	41.028667	711.118648	81.374501	86.396935
0.3	611.662885	89.181562	700.844448	81.071567	78.863735
0.4	540.100075	151.515608	691.615683	80.778259	69.636903
0.5	459.896690	223.710804	683.607494	80.496729	59.296013
0.6	376.191476	300.726399	676.917875	80.228984	48.503621
0.7	295.300073	376.255299	671.555372	79.976865	38.074023
0.8	229.728703	437.659222	667.387924	79.742027	29.619687
0.9	198.528541	465.476667	664.005208	79.525933	25.596947
1	179.668615	481.315746	660.984362	79.329870	23.165274
1.1	163.316165	494.927002	658.243167	79.154984	21.056898
1.2	149.166883	506.579721	655.746605	79.002282	19.232584
1.3	137.849197	515.605540	653.454737	78.872630	17.773356
1.4	130.056689	521.259923	651.316612	78.766746	16.768642
1.5	126.352057	522.919032	649.271089	78.685188	16.290992
1.6	127.094043	520.155548	647.249591	78.628351	16.386659
1.7	132.405773	512.773890	645.179664	78.596461	17.071518
1.8	142.167703	500.821125	642.988828	78.589569	18.330156
1.9	156.030129	484.578257	640.608386	78.607556	20.117485
2	173.442167	464.534728	637.976895	78.650123	22.362477
2.1	193.693695	441.349368	635.043063	78.716799	24.973574
2.2	215.965817	415.802083	631.767899	78.806944	27.845193
2.3	239.384578	388.741451	628.126029	78.919750	30.864652
2.4	263.072545	361.033607	624.106153	79.054248	33.918820
2.5	286.193884	333.516848	619.710732	79.209318	36.899932
2.6	307.990364	306.964658	614.955023	79.383693	39.710224
2.7	327.807169	282.058442	609.865611	79.575975	42.265271
2.8	345.107005	259.371625	604.478630	79.784639	44.495797
2.9	359.469898	239.367964	598.837862	80.008054	46.347652
3	370.578112	222.414849	592.992960	80.244493	47.779871
3.1	378.193589	208.804407	586.997996	80.492150	48.761760
3.2	382.143150	198.767174	580.910324	80.749158	49.270990
3.3	382.323727	192.465802	574.789530	81.013609	49.294273
3.4	378.725895	189.970242	568.696137	81.283574	48.830392
3.5	371.462338	191.227539	562.689877	81.557128	47.893878
3.6	360.787752	196.039810	556.827562	81.832377	46.517568
3.7	347.103725	204.057023	551.160748	82.107485	44.753240
3.8	330.948812	214.784636	545.733448	82.380718	42.670334
3.9	312.977472	227.602625	540.580097	82.650480	40.353229
4	293.932571	241.791343	535.723914	82.915384	37.897706
4.1	274.615707	256.560014	531.175721	83.174326	35.407119
4.2	255.857274	271.075969	526.933243	83.426606	32.988531
4.3	238.481752	284.499161	522.980913	83.672077	30.748247
4.4	223.250783	296.039588	519.290371	83.911298	28.784468
4.5	210.760317	305.061909	515.822226	84.145582	27.174030
4.6	201.314683	311.215058	512.529741	84.376770	25.956173
4.7	194.876807	314.487258	509.364064	84.606751	25.126116
4.8	191.145852	315.133368	506.279220	84.837030	24.645072
4.9	189.698663	313.536549	503.235212	85.068554	24.458481
5	190.108178	310.090784	500.198962	85.301751	24.511281
5.1	191.979872	305.164074	497.143946	85.536639	24.752605
5.2	194.919028	299.130873	494.049901	85.772943	25.131560
5.3	198.513599	292.389440	490.903039	86.010191	25.595020
5.4	202.378237	285.317800	487.696036	86.247776	26.093301
5.5	206.214144	278.212962	484.427105	86.485015	26.587877
5.6	209.834395	271.263954	481.098349	86.721179	27.054648
5.7	213.151871	264.562159	477.714030	86.955526	27.482381
5.8	216.149199	258.130003	474.279202	87.187317	27.868837
5.9	218.847098	251.951756	470.798854	87.415834	28.216686
6	221.279723	245.997785	467.277508	87.640391	28.530332
6.1	223.479719	240.239422	463.719141	87.860339	28.813985
6.2	225.472063	234.655200	460.127263	88.075078	29.070865
6.3	227.274281	229.230766	456.505048	88.284060	29.303231
6.4	228.900611	223.954813	452.855424	88.486788	29.512919
6.5	230.368395	218.812681	449.181075	88.682825	29.702165
6.6	231.705594	213.778741	445.484335	88.871787	29.874575
6.7	232.958122	208.808831	441.766953	89.053350	30.036067
6.8	234.194224	203.835543	438.029767	89.227244	30.195442
6.9	235.499862	198.772506	434.272368	89.393254	30.363782
7	236.955432	193.537533	430.492965	89.551216	30.551454
7.1	238.587361	188.101473	426.688833	89.701016	30.761864
7.2	240.309629	182.548031	422.857660	89.842587	30.983922
7.3	241.900782	177.098822	418.999605	89.975904	31.189074
7.4	243.053872	172.065298	415.119170	90.100981	31.337746
7.5	243.474716	167.751085	411.225801	90.217870	31.392007
7.6	242.961252	164.371729	407.332981	90.326654	31.325804
7.7	241.422702	162.033820	403.456522	90.427450	31.127434
7.8	238.856925	160.756020	399.612945	90.520402	30.796620
7.9	235.334923	160.483292	395.818215	90.605685	30.342516
8	231.003114	161.083447	392.086561	90.683504	29.784002
8.1	226.078215	162.351075	388.429290	90.754092	29.149018
8.2	220.827716	164.026087	384.853803	90.817709	28.472054
8.3	215.545112	165.817866	381.362978	90.874640	27.790950
8.4	210.525478	167.429478	377.954956	90.925191	27.143752
8.5	206.042472	168.580824	374.623296	90.969688	26.565743
8.6	202.327144	169.030350	371.357493	91.008466	26.086713
8.7	199.549499	168.594315	368.143814	91.041875	25.728582
8.8	197.804205	167.162184	364.966389	91.070268	25.503556
8.9	197.101873	164.706627	361.808500	91.093997	25.413002
9	197.367000	161.286952	358.653952	91.113413	25.447185
9.1	198.442919	157.045497	355.488416	91.128858	25.585907
9.2	200.103331	152.197317	352.300648	91.140659	25.799990
9.3	202.069333	147.014137	349.083470	91.149130	26.053473
9.4	204.030464	141.803985	345.834449	91.154560	26.306328
9.5	205.668140	136.888079	342.556218	91.157220	26.517479
9.6	206.679885	132.576525	339.256410	91.157355	26.647927
9.7	206.802898	129.144311	335.947209	91.155190	26.663787
9.8	205.835514	126.809030	332.644544	91.150926	26.539059
9.9	203.655028	125.711930	329.366958	91.144747	26.257922
10	200.230031	125.904207	326.134238	91.136822	25.816325
10.1	195.625073	127.340835	322.965907	91.127311	25.222593
10.2	189.995622	129.884093	319.879715	91.116365	24.496769
10.3	183.572762	133.317529	316.890291	91.104137	23.668648
10.4	176.640338	137.367775	314.008113	91.090777	22.774828
10.5	169.510780	141.728077	311.238857	91.076445	21.855590
10.6	162.505765	146.077341	308.583107	91.061304	20.952410
10.7	155.942561	150.093756	306.036317	91.045528	20.106194
10.8	150.120777	153.468210	303.588987	91.029300	19.355572
10.9	145.304164	155.922920	301.227083	91.012815	18.734550
11	141.698648	157.234135	298.932783	90.996276	18.269679
11.1	139.434132	157.251428	296.685560	90.979897	17.977708
11.2	138.556802	155.906676	294.463478	90.963902	17.864590
11.3	139.032136	153.212379	292.244514	90.948524	17.925877
11.4	140.753857	149.253932	290.007789	90.934002	18.147864
11.5	143.554492	144.180133	287.734625	90.920585	18.508959
11.6	147.216054	138.193390	285.409443	90.908525	18.981057
11.7	151.481136	131.539348	283.020484	90.898078	19.530968
11.8	156.064891	124.495449	280.560341	90.889506	20.121967
11.9	160.668268	117.358031	278.026298	90.883068	20.715495
12	164.992646	110.427797	275.420443	90.879022	21.273052
12.1	168.755555	103.993975	272.749530	90.877619	21.758216
12.2	171.706367	98.318234	270.024601	90.879101	22.138674
12.3	173.640219	93.620138	267.260358	90.883693	22.388012
12.4	174.408350	90.065990	264.474341	90.891600	22.487050
12.5	173.923594	87.762388	261.685983	90.903001	22.424549
12.6	172.160814	86.754798	258.915612	90.918041	22.197268
12.7	169.153133	87.030353	256.183486	90.936829	21.809477
12.8	164.985689	88.523218	253.508906	90.959434	21.272155
12.9	159.788832	91.120610	250.909443	90.985880	20.602107
13	153.732166	94.668092	248.400258	91.016151	19.821201
13.1	147.019626	98.973893	245.993519	91.050188	18.955731
13.2	139.884773	103.813116	243.697889	91.087891	18.035810
13.3	132.584973	108.933119	241.518092	91.129126	17.094623
13.4	125.393451	114.061146	239.454596	91.173727	16.167396
13.5	118.588796	118.914645	237.503440	91.221495	15.290049
13.6	112.442148	123.214096	235.656245	91.272210	14.497541
13.7	107.202762	126.697687	233.900449	91.325627	13.822009
13.8	103.082976	129.136803	232.219778	91.381482	13.290832
13.9	100.243975	130.350978	230.594953	91.439492	12.924790
14	98.783868	130.220737	229.004605	91.499364	12.736533
14.1	98.729542	128.696816	227.426358	91.560788	12.729529
14.2	100.033286	125.804716	225.838002	91.623447	12.897625
14.3	102.574575	121.644104	224.218679	91.687012	13.225282
14.4	106.166860	116.383138	222.549998	91.751151	13.688447
14.5	110.568843	110.248167	220.817010	91.815528	14.256010
14.6	115.499223	103.509746	219.008969	91.879804	14.891700
14.7	120.653421	96.466415	217.119836	91.943642	15.556248
14.8	125.720668	89.427852	215.148520	92.006711	16.209585
14.9	130.400164	82.698679	213.098843	92.068688	16.812928
15	134.415626	76.563633	210.979260	92.129262	17.330655
15.1	137.528042	71.274322	208.802365	92.188137	17.731949
15.2	139.546565	67.037639	206.584204	92.245036	17.992204
15.3	140.337369	64.006063	204.343432	92.299703	18.094165
15.4	139.830129	62.270213	202.100342	92.351909	18.028765
15.5	138.021862	61.853957	199.875819	92.401451	17.795619
15.6	134.978190	62.712054	197.690245	92.448157	17.403188
15.7	130.832676	64.729731	195.562407	92.491890	16.868693
15.8	125.785558	67.722864	193.508422	92.532549	16.217951
15.9	120.104153	71.436515	191.540668	92.570071	15.485429
16	114.128134	75.538546	189.666680	92.604436	14.714921
16.1	108.282540	79.605357	187.887897	92.635667	13.961229
16.2	103.092776	83.105390	186.198166	92.663830	13.292095
16.3	99.162915	85.419295	184.582210	92.689033	12.785405
16.4	97.033432	85.981865	183.015297	92.711427	12.510844
16.5	96.928922	84.537337	181.466259	92.731194	12.497369
16.6	98.660635	81.243096	179.903732	92.748543	12.720645
16.7	101.804594	76.496982	178.301577	92.763700	13.126006
16.8	105.899179	70.741737	176.640916	92.776900	13.653934
16.9	110.516395	64.393621	174.910016	92.788375	14.249247
17	115.264910	57.838781	173.103691	92.798351	14.861489
17.1	119.784799	51.437960	171.222760	92.807043	15.444254
17.2	123.750910	45.522625	169.273534	92.814651	15.955617
17.3	126.883279	40.383905	167.267184	92.821364	16.359484
17.4	128.959353	36.259559	165.218912	92.827362	16.627159
17.5	129.823635	33.323323	163.146958	92.832818	16.738594
17.6	129.392368	31.679109	161.071477	92.837901	16.682989
17.7	127.652727	31.360666	159.013392	92.842785	16.458692
17.8	124.657279	32.336019	156.993298	92.847644	16.072479
17.9	120.515240	34.515244	155.030484	92.852660	15.538432
18	115.382261	37.759843	153.142104	92.858020	14.876620
18.1	109.450249	41.892271	151.342520	92.863917	14.111786
18.2	102.937950	46.704846	149.642797	92.870550	13.272133
18.3	96.082247	51.968094	148.050342	92.878117	12.388204
18.4	89.129560	57.439125	146.568685	92.886822	11.491771
18.5	82.326744	62.870654	145.197398	92.896861	10.614662
18.6	75.911273	68.020889	143.932163	92.908427	9.787494
18.7	70.101020	72.663986	142.765006	92.921705	9.038358
18.8	65.084282	76.600411	141.684693	92.936868	8.391533
18.9	61.010873	79.666398	140.677272	92.954073	7.866335
19	57.985004	81.741746	139.726750	92.973462	7.476200
19.1	56.060490	82.755378	138.815868	92.995156	7.228066
19.2	55.238647	82.688277	137.926924	93.019254	7.122103
19.3	55.468953	81.573657	137.042611	93.045833	7.151797
19.4	56.652439	79.494385	136.146825	93.074944	7.304388
19.5	58.647536	76.577859	135.225396	93.106612	7.561622
19.6	61.278052	72.988656	134.266708	93.140836	7.900783
19.7	64.342823	68.919354	133.262177	93.177586	8.295935
19.8	67.626548	64.580018	132.206566	93.216806	8.719316
19.9	70.911240	60.186881	131.098121	93.258411	9.142823
20	73.987713	55.950804	129.938518	93.302293	9.539483
20.1	76.666501	52.066137	128.732638	93.348316	9.884868
20.2	78.787589	48.700580	127.488169	93.396319	10.158347
20.3	80.228446	45.986623	126.215069	93.446121	10.344121
20.4	80.909862	44.015054	124.924916	93.497518	10.431978
20.5	80.799292	42.830893	123.630185	93.550288	10.417722
20.6	79.911523	42.431969	122.343492	93.604193	10.303259
20.7	78.306653	42.770196	121.076849	93.658983	10.096338
20.8	76.085539	43.755434	119.840973	93.714396	9.809962
20.9	73.383009	45.261676	118.644685	93.770164	9.461516
21	70.359253	47.135182	117.494435	93.826016	9.071653
21.1	67.189889	49.204080	116.393969	93.881681	8.663016
21.2	64.055300	51.288873	115.344174	93.936892	8.258863
21.3	61.129820	53.213263	114.343083	93.991390	7.881671
21.4	58.571380	54.814679	113.386059	94.044929	7.551803
21.5	56.512171	55.953961	112.466132	94.097276	7.286303
21.6	55.050807	56.523668	111.574475	94.148220	7.097884
21.7	54.246430	56.454565	110.700995	94.197571	6.994173
21.8	54.115123	55.719869	109.834991	94.245165	6.977243
21.9	54.628920	54.336942	108.965862	94.290864	7.043489
22	55.717631	52.366161	108.083792	94.334561	7.183860
22.1	57.273499	49.906900	107.180399	94.376178	7.384463
22.2	59.158494	47.090784	106.249279	94.415670	7.627502
22.3	61.213779	44.072636	105.286415	94.453019	7.892497
22.4	63.270624	41.019804	104.290428	94.488239	8.157692
22.5	65.161919	38.100720	103.262638	94.521371	8.401543
22.6	66.733350	35.473604	102.206954	94.552482	8.604153
22.7	67.853398	33.276184	101.129582	94.581661	8.748565
22.8	68.421440	31.617155	100.038595	94.609017	8.821804
22.9	68.373433	30.569955	98.943388	94.634679	8.815615
23	67.684885	30.169183	97.854068	94.658787	8.726838
23.1	66.371014	30.409800	96.780814	94.681496	8.557436
23.2	64.484233	31.249024	95.733258	94.702971	8.314167
23.3	62.109281	32.610647	94.719927	94.723384	8.007957
23.4	59.356486	34.391294	93.747780	94.742916	7.653030
23.5	56.353808	36.468047	92.821856	94.761751	7.265884
23.6	53.238338	38.706724	91.945062	94.780078	6.864196
23.7	50.147960	40.970136	91.118095	94.798089	6.465744
23.8	47.213757	43.125736	90.339493	94.815976	6.087427
23.9	44.553530	45.052262	89.605792	94.833929	5.744435
24	42.266577	46.645209	88.911786	94.852137	5.449571
24.1	40.429700	47.821157	88.250857	94.870784	5.212736
24.2	39.094325	48.521032	87.615357	94.890046	5.040562
24.3	38.284719	48.712310	86.997030	94.910093	4.936177
24.4	37.997422	48.390033	86.387455	94.931084	4.899134
24.5	38.202062	47.576421	85.778484	94.953164	4.925519
24.6	38.843700	46.318954	85.162654	94.976467	5.008248
24.7	39.846585	44.686970	84.533555	95.001109	5.137553
24.8	41.119060	42.767062	83.886122	95.027192	5.301618
24.9	42.559183	40.657666	83.216848	95.054798	5.487297
25	44.060603	38.463297	82.523900	95.083992	5.680880
25.1	45.518324	36.288818	81.807142	95.114819	5.868829
25.2	46.834020	34.234052	81.068072	95.147303	6.038466
25.3	47.920710	32.388966	80.309676	95.181451	6.178577
25.4	48.706624	30.829592	79.536216	95.217247	6.279907
25.5	49.138174	29.614783	78.752957	95.254657	6.335549
25.6	49.181970	28.783895	77.965865	95.293629	6.341195
25.7	48.825833	28.355438	77.181271	95.334090	6.295277
25.8	48.078790	28.326737	76.405527	95.375951	6.198959
25.9	46.970075	28.674606	75.644682	95.419107	6.056008
26	45.547173	29.356991	74.904164	95.463436	5.872549
26.1	43.873031	30.315485	74.188515	95.508803	5.656696
26.2	42.022577	31.478593	73.501170	95.555059	5.418111
26.3	40.078737	32.765556	72.844292	95.602043	5.167485
26.4	38.128129	34.090558	72.218687	95.649586	4.915987
26.5	36.256645	35.367125	71.623770	95.697508	4.674690
26.6	34.545085	36.512536	71.057621	95.745623	4.454013
26.7	33.065025	37.452066	70.517091	95.793740	4.263184
26.8	31.875095	38.122895	69.997990	95.841663	4.109762
26.9	31.017820	38.477492	69.495311	95.889196	3.999231
27	30.517227	38.486287	69.003514	95.936144	3.934688
27.1	30.377388	38.139444	68.516832	95.982313	3.916658
27.2	30.582044	37.447553	68.029597	96.027516	3.943045
27.3	31.095433	36.441123	67.536556	96.071572	4.009238
27.4	31.864330	35.168846	67.033177	96.114315	4.108374
27.5	32.821210	33.694682	66.515893	96.155589	4.231748
27.6	33.888362	32.093946	65.982308	96.195257	4.369340
27.7	34.982657	30.448662	65.431319	96.233204	4.510431
27.8	36.020632	28.842531	64.863163	96.269334	4.644260
27.9	36.923534	27.355846	64.279380	96.303578	4.760674
28	37.621962	26.060740	63.682702	96.335897	4.850725
28.1	38.059817	25.017052	63.076869	96.366276	4.907179
28.2	38.197325	24.269067	62.466392	96.394730	4.924908
28.3	38.012981	23.843294	61.856274	96.421303	4.901140
28.4	37.504347	23.747363	61.251710	96.446067	4.835560
28.5	36.687722	23.970059	60.657781	96.469117	4.730270
28.6	35.596761	24.482408	60.079169	96.490574	4.589609
28.7	34.280189	25.239702	59.519891	96.510576	4.419859
28.8	32.798783	26.184301	58.983084	96.529282	4.228856
28.9	31.221835	27.249006	58.470841	96.546861	4.025535
29	29.623280	28.360821	57.984101	96.563496	3.819428
29.1	28.077724	29.444890	57.522613	96.579373	3.620155
29.2	26.656530	30.428421	57.084951	96.594685	3.436915
29.3	25.424169	31.244427	56.668596	96.609623	3.278023
29.4	24.434988	31.835090	56.270078	96.624376	3.150485
29.5	23.730550	32.154605	55.885156	96.639129	3.059659
29.6	23.337691	32.171346	55.509036	96.654057	3.009006
29.7	23.267383	31.869243	55.136626	96.669327	2.999941
29.8	23.514482	31.248302	54.762784	96.685094	3.031801
29.9	24.058337	30.324240	54.382577	96.701500	3.101922
30	24.864232	29.127286	53.991517	96.718674	3.205828
30.1	25.885532	27.700239	53.585771	96.736729	3.337508
30.2	27.066389	26.095938	53.162327	96.755766	3.489760
30.3	28.344822	24.374303	52.719124	96.775869	3.654592
30.4	29.655972	22.599146	52.255118	96.797107	3.823643
30.5	30.935358	20.834945	51.770303	96.819534	3.988599
30.6	32.121927	19.143755	51.265682	96.843191	4.141587
30.7	33.160769	17.582421	50.743189	96.868102	4.275528
30.8	34.005354	16.200220	50.205574	96.894279	4.384424
30.9	34.619234	15.037017	49.656250	96.921720	4.463573
31	34.977150	14.121976	49.099126	96.950410	4.509721
31.1	35.065579	13.472842	48.538420	96.980323	4.521122
31.2	34.882738	13.095738	47.978476	97.011419	4.497548
31.3	34.438121	12.985450	47.423571	97.043649	4.440222
31.4	33.751619	13.126129	46.877748	97.076954	4.351709
31.5	32.852289	13.492367	46.344656	97.111266	4.235755
31.6	31.776824	14.050592	45.827415	97.146508	4.097092
31.7	30.567756	14.760755	45.328511	97.182595	3.941203
31.8	29.271464	15.578249	44.849713	97.219438	3.774067
31.9	27.936024	16.456010	44.392034	97.256940	3.601885
32	26.609002	17.346713	43.955716	97.295003	3.430787
32.1	25.335275	18.204986	43.540261	97.333524	3.266561
32.2	24.154979	18.989509	43.144488	97.372397	3.114382
32.3	23.101718	19.664905	42.766623	97.411517	2.978582
32.4	22.201123	20.203294	42.404417	97.450778	2.862465
32.5	21.469866	20.585416	42.055282	97.490077	2.768181
32.6	20.915188	20.801250	41.716438	97.529309	2.696665
32.7	20.534988	20.850076	41.385064	97.568376	2.647644
32.8	20.318441	20.740003	41.058444	97.607183	2.619724
32.9	20.247128	20.486970	40.734098	97.645640	2.610530
33	20.296552	20.113339	40.409891	97.683661	2.616902
33.1	20.437957	19.646160	40.084117	97.721169	2.635134
33.2	20.640289	19.115261	39.755551	97.758093	2.661221
33.3	20.872164	18.551305	39.423470	97.794372	2.691118
33.4	21.103711	17.983932	39.087643	97.829952	2.720972
33.5	21.308172	17.440124	38.748296	97.864790	2.747334
33.6	21.463176	16.942870	38.406046	97.898852	2.767319
33.7	21.551632	16.510198	38.061830	97.932116	2.778724
33.8	21.562228	16.154582	37.716810	97.964570	2.780090
33.9	21.489538	15.882746	37.372284	97.996213	2.770718
34	21.333780	15.695809	37.029589	98.027056	2.750635
34.1	21.100287	15.589731	36.690018	98.057120	2.720530
34.2	20.798734	15.556010	36.354743	98.086437	2.681650
34.3	20.442219	15.582534	36.024752	98.115048	2.635683
34.4	20.046246	15.654557	35.700803	98.143005	2.584629
34.5	19.627688	15.755705	35.383393	98.170364	2.530663
34.6	19.203775	15.868971	35.072746	98.197191	2.476007
34.7	18.791159	15.977653	34.768812	98.223556	2.422807
34.8	18.405095	16.066192	34.471287	98.249531	2.373030
34.9	18.058751	16.120886	34.179637	98.275192	2.328375
35	17.762676	16.130463	33.893138	98.300615	2.290201
35.1	17.524424	16.086498	33.610922	98.325873	2.259482
35.2	17.348340	15.983685	33.332025	98.351039	2.236779
35.3	17.235486	15.819951	33.055438	98.376178	2.222229
35.4	17.183716	15.596446	32.780163	98.401353	2.215554
35.5	17.187862	15.317397	32.505260	98.426615	2.216088
35.6	17.240043	14.989851	32.229894	98.452010	2.222816
35.7	17.330063	14.623313	31.953376	98.477574	2.234423
35.8	17.445897	14.229297	31.675194	98.503330	2.249358
