#time	ekin		epot		etot		chain_length	temperature
0	440.272720	0.000609	440.273329	82.000061	56.765830
0.1	421.174832	10.450279	431.625111	81.685383	54.303475
0.2	383.253716	40.298567	423.552283	81.377943	49.414179
0.3	330.504097	85.890103	416.394200	81.081624	42.612995
0.4	268.372244	142.022689	410.394933	80.800076	34.602128
0.5	203.177340	202.502519	405.679859	80.536646	26.196332
0.6	141.468493	260.776094	402.244587	80.294316	18.240004
0.7	89.391570	310.565187	399.956758	80.075649	11.525553
0.8	52.069220	346.500992	398.570212	79.882752	6.713458
0.9	32.718829	365.034672	397.753501	79.717238	4.218548
1	31.698412	365.440340	397.138752	79.580221	4.086982
1.1	47.206124	349.169088	396.375212	79.472308	6.086443
1.2	76.607187	318.550516	395.157703	79.393614	9.877220
1.3	116.607637	276.632398	393.240035	79.343774	15.034611
1.4	163.149895	227.299703	390.449598	79.321958	21.035460
1.5	211.613437	175.087700	386.701137	79.326900	27.284026
1.6	257.235865	124.768154	382.004018	79.356929	33.166278
1.7	295.599936	80.860282	376.460218	79.410005	38.112685
1.8	323.089941	47.162795	370.252736	79.483777	41.657063
1.9	337.257607	26.368119	363.625726	79.575628	43.483748
2	337.057595	19.800948	356.858543	79.682744	43.457959
2.1	322.928051	27.308561	350.236612	79.802173	41.636190
2.2	296.706495	47.315829	344.022324	79.930899	38.255358
2.3	261.386461	77.042765	338.429226	80.065908	33.701428
2.4	220.736451	112.866064	333.602515	80.204261	28.460287
2.5	178.819559	150.788654	329.608213	80.343164	23.055802
2.6	139.464727	186.967802	326.432529	80.480036	17.981652
2.7	105.754684	218.237085	323.991769	80.612574	13.635304
2.8	79.660429	242.490897	322.151326	80.738810	10.270885
2.9	62.017389	258.731443	320.748831	80.857154	7.996109
3	52.830845	266.783300	319.614145	80.966420	6.811657
3.1	51.606726	266.975710	318.582436	81.065825	6.653827
3.2	57.518701	259.983528	317.502228	81.154955	7.416078
3.3	69.463286	246.778115	316.241400	81.233701	8.956133
3.4	86.095714	228.596671	314.692385	81.302185	11.100607
3.5	105.887755	206.888710	312.776465	81.360680	13.652461
3.6	127.212037	183.234602	310.446638	81.409552	16.401872
3.7	148.443833	159.244770	307.688603	81.449233	19.139358
3.8	168.068229	136.451400	304.519629	81.480216	21.669597
3.9	184.780998	116.204336	300.985334	81.503062	23.824430
4	197.572934	99.581661	297.154595	81.518425	25.473737
4.1	205.789340	87.323659	293.112999	81.527060	26.533106
4.2	209.159097	79.796318	288.955414	81.529842	26.967580
4.3	207.791189	76.987109	284.778298	81.527761	26.791211
4.4	202.140384	78.532005	280.672389	81.521916	26.062634
4.5	192.946841	83.769515	276.716356	81.513500	24.877279
4.6	181.155974	91.815893	272.971867	81.503776	23.357044
4.7	167.825134	101.655264	269.480399	81.494058	21.638254
4.8	154.024051	112.237939	266.261990	81.485676	19.858834
4.9	140.737939	122.578038	263.315977	81.479959	18.145812
5	128.785238	131.838304	260.623542	81.478206	16.604710
5.1	118.762159	139.389496	258.151654	81.481671	15.312401
5.2	111.020246	144.837552	255.857798	81.491538	14.314210
5.3	105.674185	148.020641	253.694826	81.508913	13.624925
5.4	102.632169	148.983263	251.615432	81.534806	13.232708
5.5	101.640812	147.935029	249.575841	81.570122	13.104889
5.6	102.336167	145.202369	247.538537	81.615649	13.194543
5.7	104.290661	141.183327	245.473988	81.672052	13.446543
5.8	107.047922	136.313629	243.361551	81.739863	13.802046
5.9	110.148909	131.040871	241.189780	81.819480	14.201866
6	113.165439	125.790730	238.956170	81.911161	14.590797
6.1	115.749249	120.916822	236.666071	82.015022	14.923937
6.2	117.679860	116.650725	234.330585	82.131041	15.172857
6.3	118.887105	113.076624	231.963729	82.259055	15.328511
6.4	119.440079	110.139406	229.579486	82.398770	15.399808
6.5	119.510219	107.679139	227.189358	82.549761	15.408851
6.6	119.321469	105.479336	224.800805	82.711485	15.384515
6.7	119.099419	103.317294	222.416713	82.883285	15.355885
6.8	119.027398	101.008414	220.035812	83.064406	15.346599
6.9	119.213023	98.440854	217.653877	83.254002	15.370532
7	119.665690	95.599795	215.265485	83.451150	15.428896
7.1	120.285541	92.580567	212.866108	83.654866	15.508816
7.2	120.866625	89.587673	210.454299	83.864114	15.583737
7.3	121.117990	86.915637	208.033627	84.077825	15.616146
7.4	120.703498	84.910517	205.614015	84.294906	15.562704
7.5	119.295020	83.917104	203.212123	84.514257	15.381105
7.6	116.628982	84.221638	200.850620	84.734781	15.037364
7.7	112.556128	86.000247	198.556375	84.955401	14.512237
7.8	107.077422	89.280364	196.357786	85.175065	13.805849
7.9	100.362113	93.919449	194.281562	85.392763	12.940022
8	92.745755	99.603590	192.349345	85.607534	11.958019
8.1	84.707430	105.867144	190.574574	85.818475	10.921611
8.2	76.827333	112.132677	188.960010	86.024751	9.905604
8.3	69.728465	117.767809	187.496274	86.225601	8.990323
8.4	64.008847	122.152815	186.161662	86.420346	8.252874
8.5	60.172545	124.750790	184.923335	86.608395	7.758247
8.6	58.568546	125.171290	183.739836	86.789250	7.551438
8.7	59.345640	123.219029	182.564669	86.962513	7.651631
8.8	62.429310	118.921270	181.350580	87.127888	8.049219
8.9	67.523387	112.530657	180.054044	87.285187	8.706015
9	74.135860	104.503620	178.639481	87.434330	9.558584
9.1	81.625273	95.457462	177.082735	87.575352	10.524219
9.2	89.262200	86.111273	175.373472	87.708397	11.508873
9.3	96.299225	77.217023	173.516248	87.833723	12.416180
9.4	102.042597	69.487549	171.530146	87.951697	13.156692
9.5	105.918996	63.528028	169.447024	88.062787	13.656489
9.6	107.531636	59.776886	167.308522	88.167555	13.864412
9.7	106.700982	58.461116	165.162099	88.266642	13.757313
9.8	103.486642	59.569788	163.056429	88.360749	13.342878
9.9	98.188143	62.848438	161.036581	88.450616	12.659725
10	91.323117	67.816276	159.139393	88.536999	11.774594
10.1	83.581880	73.807650	157.389530	88.620646	10.776490
10.2	75.758467	80.038212	155.796679	88.702275	9.767792
10.3	68.661809	85.692528	154.354337	88.782556	8.852796
10.4	63.018127	90.022362	153.040489	88.862098	8.125137
10.5	59.383006	92.437168	151.820175	88.941439	7.656449
10.6	58.080919	92.568641	150.649560	89.021039	7.488566
10.7	59.179546	90.301330	149.480876	89.101279	7.630216
10.8	62.495371	85.772172	148.267543	89.182460	8.057737
10.9	67.623431	79.345503	146.968934	89.264810	8.718914
11	73.985305	71.569042	145.554347	89.348483	9.539172
11.1	80.890442	63.115439	144.005881	89.433568	10.429474
11.2	87.605551	54.714442	142.319993	89.520093	11.295276
11.3	93.426068	47.081567	140.507635	89.608031	12.045734
11.4	97.743246	40.849753	138.592999	89.697310	12.602363
11.5	100.100637	36.510372	136.611009	89.787817	12.906309
11.6	100.234669	34.369173	134.603841	89.879406	12.923590
11.7	98.095549	34.521276	132.616824	89.971904	12.647786
11.8	93.846591	36.847539	130.694130	90.065117	12.099954
11.9	87.842253	41.032449	128.874702	90.158838	11.325794
12	80.587719	46.601084	127.188803	90.252851	10.390443
12.1	72.685751	52.969774	125.655525	90.346935	9.371616
12.2	64.778573	59.502839	124.281412	90.440872	8.352117
12.3	57.492206	65.568030	123.060236	90.534447	7.412662
12.4	51.387319	70.586510	121.973829	90.627454	6.625538
12.5	46.917126	74.076692	120.993818	90.719697	6.049182
12.6	44.392139	75.692001	120.084141	90.810994	5.723627
12.7	43.953462	75.250721	119.204183	90.901175	5.667066
12.8	45.558224	72.754112	118.312336	90.990088	5.873974
12.9	48.980745	68.388950	117.369695	91.077594	6.315251
13	53.831308	62.512244	116.343551	91.163569	6.940650
13.1	59.591738	55.618614	115.210351	91.247906	7.683361
13.2	65.664222	48.293566	113.957788	91.330510	8.466307
13.3	71.427891	41.157950	112.585841	91.411300	9.209436
13.4	76.296898	34.809751	111.106650	91.490206	9.837213
13.5	79.774084	29.769184	109.543268	91.567169	10.285539
13.6	81.495197	26.432229	107.927426	91.642139	10.507447
13.7	81.259910	25.036631	106.296541	91.715076	10.477111
13.8	79.047277	25.642976	104.690253	91.785947	10.191829
13.9	75.014793	28.132028	103.146821	91.854722	9.671907
14	69.481739	32.217959	101.699698	91.921382	8.958512
14.1	62.898834	37.475742	100.374577	91.985911	8.109756
14.2	55.807264	43.379888	99.187152	92.048297	7.195417
14.3	48.790824	49.350966	98.141790	92.108535	6.290764
14.4	42.425163	54.806011	97.231175	92.166625	5.470018
14.5	37.228116	59.208860	96.436976	92.222573	4.799945
14.6	33.614912	62.116553	95.731464	92.276390	4.334083
14.7	31.861746	63.218198	95.079945	92.328096	4.108041
14.8	32.080777	62.363030	94.443807	92.377718	4.136282
14.9	34.208941	59.575004	93.783946	92.425290	4.410673
15	38.012061	55.052184	93.064245	92.470858	4.901022
15.1	43.104481	49.150354	92.254836	92.514476	5.557604
15.2	48.983065	42.351737	91.334802	92.556212	6.315550
15.3	55.072803	35.221291	90.294093	92.596144	7.100720
15.4	60.779881	28.354560	89.134441	92.634362	7.836553
15.5	65.547001	22.322176	87.869177	92.670971	8.451193
15.6	68.905383	17.616594	86.521977	92.706090	8.884201
15.7	70.518247	14.606385	85.124632	92.739850	9.092153
15.8	70.211494	13.502588	83.714082	92.772397	9.052602
15.9	67.988687	14.340299	82.328986	92.803891	8.766008
16	64.029016	16.977136	81.006152	92.834505	8.255475
16.1	58.668565	21.108630	79.777196	92.864423	7.564334
16.2	52.366742	26.298967	78.665709	92.893841	6.751819
16.3	45.661111	32.024120	77.685231	92.922963	5.887239
16.4	39.114978	37.723223	76.838201	92.952004	5.043225
16.5	33.262891	42.853102	76.115993	92.981181	4.288695
16.6	28.559650	46.940354	75.500004	93.010715	3.682291
16.7	25.338302	49.625395	74.963697	93.040829	3.266952
16.8	23.781713	50.693626	74.475338	93.071740	3.066255
16.9	23.910683	50.090472	74.001155	93.103663	3.082884
17	25.589272	47.919276	73.508547	93.136803	3.299310
17.1	28.545596	44.423443	72.969039	93.171352	3.680479
17.2	32.404508	39.956179	72.360687	93.207488	4.178021
17.3	36.727651	34.942103	71.669753	93.245372	4.735418
17.4	41.056442	29.835100	70.891542	93.285142	5.293544
17.5	44.954053	25.076325	70.030378	93.326912	5.796076
17.6	48.043030	21.055756	69.098786	93.370770	6.194348
17.7	50.035785	18.080201	68.115987	93.416778	6.451281
17.8	50.755743	16.350122	67.105866	93.464963	6.544107
17.9	50.147709	15.946928	66.094637	93.515323	6.465711
18	48.276902	16.831499	65.108401	93.567823	6.224502
18.1	45.317156	18.853687	64.170842	93.622394	5.842892
18.2	41.529800	21.771449	63.301249	93.678936	5.354576
18.3	37.235666	25.277373	62.513039	93.737313	4.800919
18.4	32.783290	29.029590	61.812881	93.797361	4.226859
18.5	28.516686	32.683779	61.200465	93.858887	3.676751
18.6	24.745909	35.922989	60.668898	93.921667	3.190573
18.7	21.723077	38.482552	60.205628	93.985458	2.800829
18.8	19.625624	40.168164	59.793789	94.049993	2.530397
18.9	18.547521	40.866268	59.413789	94.114988	2.391394
19	18.498181	40.546831	59.045011	94.180149	2.385032
19.1	19.408011	39.259440	58.667451	94.245171	2.502340
19.2	21.139159	37.124043	58.263201	94.309745	2.725542
19.3	23.500014	34.317662	57.817676	94.373565	3.029935
19.4	26.262226	31.058292	57.320518	94.436330	3.386076
19.5	29.179209	27.586943	56.766152	94.497750	3.762173
19.6	32.005125	24.148833	56.153958	94.557548	4.126527
19.7	34.513221	20.974849	55.488071	94.615470	4.449905
19.8	36.512280	18.264552	54.776831	94.671282	4.707650
19.9	37.859925	16.172009	54.031934	94.724781	4.881406
20	38.471725	14.795628	53.267353	94.775793	4.960288
20.1	38.325347	14.172786	52.498133	94.824176	4.941415
20.2	37.459500	14.279649	51.739148	94.869825	4.829778
20.3	35.967878	15.036058	51.003936	94.912675	4.637458
20.4	33.988812	16.314880	50.303691	94.952696	4.382291
20.5	31.691704	17.954805	49.646509	94.989901	4.086117
20.6	29.261634	19.775278	49.036912	95.024340	3.772800
20.7	26.883578	21.592118	48.475696	95.056104	3.466189
20.8	24.727650	23.232434	47.960084	95.085321	3.188218
20.9	22.936507	24.547644	47.484151	95.112156	2.957280
21	21.615691	25.423788	47.039479	95.136807	2.786983
21.1	20.827322	25.788641	46.615964	95.159506	2.685336
21.2	20.587241	25.615480	46.202720	95.180509	2.654382
21.3	20.865522	24.923486	45.789008	95.200098	2.690261
21.4	21.590229	23.774885	45.365114	95.218573	2.783700
21.5	22.654202	22.268928	44.923130	95.236252	2.920882
21.6	23.924569	20.532996	44.457565	95.253458	3.084674
21.7	25.254387	18.711361	43.965749	95.270522	3.256132
21.8	26.495524	16.952457	43.447982	95.287771	3.416156
21.9	27.511664	15.395768	42.907431	95.305528	3.547171
22	28.190184	14.159588	42.349772	95.324102	3.634654
22.1	28.451769	13.330843	41.782611	95.343785	3.668381
22.2	28.256816	12.957938	41.214754	95.364849	3.643245
22.3	27.608046	13.047328	40.655373	95.387534	3.559597
22.4	26.549107	13.564068	40.113175	95.412054	3.423065
22.5	25.159369	14.436252	39.595622	95.438585	3.243881
22.6	23.545485	15.562815	39.108299	95.467266	3.035798
22.7	21.830630	16.823848	38.654478	95.498193	2.814696
22.8	20.142555	18.092340	38.234896	95.531423	2.597047
22.9	18.601688	19.246104	37.847791	95.566968	2.398378
23	17.310504	20.178654	37.489159	95.604796	2.231901
23.1	16.345218	20.807975	37.153192	95.644832	2.107443
23.2	15.750502	21.082371	36.832872	95.686959	2.030765
23.3	15.537609	20.983011	36.520619	95.731019	2.003316
23.4	15.685771	20.523183	36.208954	95.776820	2.022419
23.5	16.146410	19.744690	35.891100	95.824132	2.081810
23.6	16.849393	18.712085	35.561478	95.872697	2.172448
23.7	17.710501	17.505566	35.216067	95.922230	2.283474
23.8	18.639288	16.213318	34.852606	95.972426	2.403225
23.9	19.546682	14.923957	34.470639	96.022963	2.520219
24	20.351815	13.719607	34.071422	96.073510	2.624027
24.1	20.987708	12.669989	33.657698	96.123729	2.706015
24.2	21.405516	11.827856	33.233372	96.173283	2.759885
24.3	21.577138	11.225985	32.803123	96.221841	2.782012
24.4	21.496078	10.875897	32.371975	96.269083	2.771561
24.5	21.176565	10.768309	31.944874	96.314706	2.730365
24.6	20.651061	10.875229	31.526290	96.358427	2.662610
24.7	19.966449	11.153445	31.119895	96.399992	2.574341
24.8	19.179238	11.549079	30.728317	96.439172	2.472843
24.9	18.350238	12.002766	30.353004	96.475778	2.365957
25	17.539147	12.455041	29.994188	96.509652	2.261381
25.1	16.799489	12.851471	29.650960	96.540680	2.166014
25.2	16.174296	13.147146	29.321442	96.568785	2.085406
25.3	15.692853	13.310173	29.003027	96.593937	2.023332
25.4	15.368761	13.323914	28.692675	96.616144	1.981546
25.5	15.199466	13.187775	28.387241	96.635461	1.959718
25.6	15.167297	12.916483	28.083779	96.651983	1.955570
25.7	15.241939	12.537895	27.779834	96.665843	1.965194
25.8	15.384108	12.089542	27.473650	96.677215	1.983524
25.9	15.550071	11.614240	27.164311	96.686305	2.004922
26	15.696519	11.155259	26.851778	96.693352	2.023805
26.1	15.785264	10.751572	26.536836	96.698618	2.035247
26.2	15.787207	10.433741	26.220948	96.702392	2.035497
26.3	15.685153	10.220891	25.906044	96.704975	2.022339
26.4	15.475172	10.119093	25.594265	96.706683	1.995265
26.5	15.166417	10.121282	25.287698	96.707835	1.955457
26.6	14.779473	10.208659	24.988131	96.708752	1.905567
26.7	14.343503	10.353345	24.696848	96.709749	1.849356
26.8	13.892558	10.521934	24.414492	96.711128	1.791214
26.9	13.461495	10.679517	24.141012	96.713176	1.735635
27	13.081972	10.793715	23.875687	96.716158	1.686702
27.1	12.778934	10.838287	23.617222	96.720312	1.647631
27.2	12.567954	10.795959	23.363913	96.725846	1.620428
27.3	12.453677	10.660179	23.113856	96.732934	1.605694
27.4	12.429482	10.435681	22.865163	96.741713	1.602575
27.5	12.478387	10.137800	22.616187	96.752281	1.608880
27.6	12.575040	9.790668	22.365708	96.764696	1.621342
27.7	12.688585	9.424488	22.113072	96.778976	1.635982
27.8	12.786077	9.072194	21.858271	96.795101	1.648552
27.9	12.836081	8.765865	21.601946	96.813009	1.654999
28	12.812069	8.533254	21.345323	96.832604	1.651903
28.1	12.695283	8.394801	21.090084	96.853756	1.636845
28.2	12.476783	8.361409	20.838192	96.876305	1.608673
28.3	12.158477	8.433203	20.591680	96.900064	1.567633
28.4	11.753079	8.599357	20.352436	96.924825	1.515364
28.5	11.282983	8.839007	20.121991	96.950363	1.454753
28.6	10.778196	9.123153	19.901349	96.976440	1.389669
28.7	10.273497	9.417366	19.690863	97.002812	1.324596
28.8	9.805091	9.685076	19.490167	97.029233	1.264203
28.9	9.407052	9.891137	19.298189	97.055460	1.212883
29	9.107884	10.005340	19.113224	97.081256	1.174310
29.1	8.927538	10.005541	18.933079	97.106397	1.151057
29.2	8.875191	9.880076	18.755267	97.130677	1.144308
29.3	8.948031	9.629203	18.577234	97.153907	1.153699
29.4	9.131216	9.265391	18.396607	97.175923	1.177318
29.5	9.399024	8.812395	18.211419	97.196587	1.211848
29.6	9.717131	8.303178	18.020309	97.215789	1.252862
29.7	10.045780	7.776883	17.822663	97.233451	1.295236
29.8	10.343555	7.275129	17.618684	97.249525	1.333629
29.9	10.571373	6.838015	17.409388	97.263997	1.363002
30	10.696306	6.500210	17.196516	97.276885	1.379110
30.1	10.694850	6.287530	16.982380	97.288240	1.378923
30.2	10.555320	6.214326	16.769646	97.298144	1.360933
30.3	10.279141	6.281941	16.561082	97.306710	1.325324
30.4	9.880898	6.478399	16.359297	97.314078	1.273977
30.5	9.387145	6.779340	16.166485	97.320413	1.210316
30.6	8.834075	7.150133	15.984208	97.325902	1.139007
30.7	8.264261	7.548974	15.813235	97.330753	1.065539
30.8	7.722770	7.930679	15.653449	97.335187	0.995722
30.9	7.253006	8.250839	15.503845	97.339434	0.935154
31	6.892663	8.469935	15.362598	97.343732	0.888694
31.1	6.670165	8.557052	15.227217	97.348321	0.860007
31.2	6.601933	8.492826	15.094760	97.353435	0.851209
31.3	6.690743	8.271347	14.962089	97.359303	0.862660
31.4	6.925327	7.900828	14.826155	97.366140	0.892905
31.5	7.281282	7.402982	14.684264	97.374145	0.938800
31.6	7.723193	6.811135	14.534328	97.383496	0.995777
31.7	8.207785	6.167265	14.375050	97.394347	1.058257
31.8	8.687807	5.518239	14.206047	97.406825	1.120148
31.9	9.116294	4.911588	14.027882	97.421029	1.175394
32	9.450799	4.391224	13.842023	97.437023	1.218523
32.1	9.657206	3.993500	13.650706	97.454840	1.245136
32.2	9.712772	3.743971	13.456743	97.474481	1.252300
32.3	9.608109	3.655158	13.263267	97.495909	1.238805
32.4	9.347930	3.725528	13.073458	97.519057	1.205260
32.5	8.950496	3.939771	12.890267	97.543825	1.154017
32.6	8.445806	4.270350	12.716156	97.570082	1.088946
32.7	7.872720	4.680173	12.552893	97.597669	1.015056
32.8	7.275280	5.126131	12.401410	97.626401	0.938026
32.9	6.698580	5.563163	12.261743	97.656071	0.863670
33	6.184589	5.948459	12.133048	97.686454	0.797400
33.1	5.768317	6.245389	12.013706	97.717309	0.743728
33.2	5.474695	6.426800	11.901495	97.748382	0.705871
33.3	5.316470	6.477342	11.793813	97.779415	0.685470
33.4	5.293294	6.394639	11.687933	97.810147	0.682482
33.5	5.392085	6.189180	11.581265	97.840317	0.695219
33.6	5.588613	5.882983	11.471596	97.869673	0.720559
33.7	5.850121	5.507164	11.357286	97.897970	0.754276
33.8	6.138728	5.098682	11.237409	97.924978	0.791487
33.9	6.415257	4.696561	11.111817	97.950488	0.827140
34	6.643126	4.337998	10.981124	97.974308	0.856520
34.1	6.791910	4.054711	10.846621	97.996273	0.875704
34.2	6.840234	3.869886	10.710120	98.016245	0.881934
34.3	6.777730	3.796023	10.573753	98.034113	0.873875
34.4	6.605868	3.833875	10.439742	98.049798	0.851717
34.5	6.337606	3.972558	10.310164	98.063254	0.817129
34.6	5.995906	4.190824	10.186730	98.074465	0.773072
34.7	5.611276	4.459339	10.070615	98.083447	0.723481
34.8	5.218600	4.743733	9.962333	98.090249	0.672852
34.9	4.853578	5.008108	9.861686	98.094948	0.625788
35	4.549133	5.218652	9.767785	98.097651	0.586535
35.1	4.332131	5.347005	9.679136	98.098489	0.558556
35.2	4.220741	5.373053	9.593793	98.097619	0.544194
35.3	4.222665	5.286884	9.509549	98.095215	0.544442
35.4	4.334413	5.089739	9.424152	98.091470	0.558850
35.5	4.541669	4.793864	9.335533	98.086590	0.585573
35.6	4.820698	4.421307	9.242005	98.080790	0.621549
35.7	5.140666	4.001765	9.142431	98.074291	0.662803
35.8	5.466623	3.569715	9.036338	98.067314	0.704830
35.9	5.762874	3.161090	8.923964	98.060082	0.743027
36	5.996410	2.809832	8.806242	98.052809	0.773137
36.1	6.140061	2.544647	8.684709	98.045701	0.791659
36.2	6.175084	2.386281	8.561365	98.038954	0.796174
36.3	6.092920	2.345569	8.438489	98.032746	0.785580
36.4	5.895971	2.422445	8.318416	98.027241	0.760187
36.5	5.597325	2.606005	8.203330	98.022583	0.721682
36.6	5.219454	2.875600	8.095053	98.018895	0.672962
36.7	4.792042	3.202842	7.994884	98.016279	0.617854
36.8	4.349146	3.554330	7.903476	98.014815	0.560750
