#time	ekin		epot		etot		chain_length	temperature
0	440.272720	0.000609	440.273329	82.000061	56.765830
0.1	415.573755	10.381025	425.954781	81.686428	53.581310
0.2	373.000339	39.767368	412.767706	81.382058	48.092177
0.3	317.035720	84.201680	401.237400	81.090702	40.876472
0.4	253.394382	138.323205	391.717587	80.815829	32.670982
0.5	188.404594	195.954889	384.359483	80.560564	24.291632
0.6	128.355119	250.747094	379.102213	80.327635	16.549253
0.7	78.869103	296.815602	375.684705	80.119324	10.168856
0.8	44.316044	329.361657	373.677700	79.937437	5.713815
0.9	27.182399	345.353456	372.535855	79.783279	3.504717
1	27.624758	344.044766	371.669524	79.657648	3.561752
1.1	43.911517	326.606244	370.517761	79.560835	5.661658
1.2	73.220221	295.376843	368.597064	79.492644	9.440527
1.3	111.919961	253.611797	365.531758	79.452406	14.430214
1.4	155.707338	205.371672	361.079009	79.439008	20.075866
1.5	199.925218	155.221240	355.146458	79.450925	25.777025
1.6	240.010502	107.786227	347.796729	79.486261	30.945354
1.7	271.956169	67.280338	339.236507	79.542796	35.064216
1.8	292.710305	37.080794	329.791099	79.618040	37.740115
1.9	300.464410	19.403024	319.867434	79.709288	38.739878
2	294.802390	15.107335	309.909725	79.813689	38.009855
2.1	276.697288	23.655388	300.352676	79.928304	35.675504
2.2	248.357115	43.220232	291.577347	80.050175	32.021511
2.3	212.934150	70.940328	283.874478	80.176390	27.454310
2.4	174.124876	103.294562	277.419437	80.304146	22.450501
2.5	135.703001	136.558744	272.261745	80.430809	17.496640
2.6	101.047166	167.283297	268.330464	80.553972	13.028348
2.7	72.742868	192.711462	265.454330	80.671502	9.378981
2.8	52.347868	211.044813	263.392681	80.781585	6.749385
2.9	40.392910	221.477482	261.870392	80.882749	5.207992
3	36.593886	224.015110	260.608996	80.973880	4.718172
3.1	40.123946	219.225283	259.349228	81.054212	5.173314
3.2	49.808179	208.057403	257.865582	81.123302	6.421935
3.3	64.230001	191.745959	255.975961	81.180986	8.281388
3.4	81.804133	171.744368	253.548501	81.227330	10.547280
3.5	100.856882	149.649022	250.505904	81.262587	13.003814
3.6	119.724458	127.102331	246.826789	81.287168	15.436473
3.7	136.862541	105.681013	242.543554	81.301625	17.646144
3.8	150.954164	86.782408	237.736571	81.306650	19.463024
3.9	161.002531	71.522469	232.525000	81.303078	20.758593
4	166.397458	60.657465	227.054923	81.291884	21.454179
4.1	166.947438	54.538383	221.485820	81.274177	21.525090
4.2	162.873472	53.103139	215.976611	81.251189	20.999820
4.3	154.765234	55.907296	210.672530	81.224249	19.954398
4.4	143.504458	62.189581	205.694039	81.194755	18.502508
4.5	130.164055	70.964659	201.128714	81.164146	16.782486
4.6	115.894085	81.132678	197.026762	81.133871	14.942611
4.7	101.806997	91.593372	193.400369	81.105353	13.126316
4.8	88.874751	101.351973	190.226725	81.079969	11.458918
4.9	77.849414	109.604691	187.454105	81.059019	10.037384
5	69.216193	115.793891	185.010085	81.043714	8.924275
5.1	63.182607	119.628106	182.810712	81.035157	8.146344
5.2	59.700642	121.068837	180.769479	81.034329	7.697403
5.3	58.513833	120.291276	178.805109	81.042087	7.544384
5.4	59.220066	117.627424	176.847490	81.059151	7.635441
5.5	61.341649	113.499721	174.841370	81.086104	7.908983
5.6	64.393903	108.353816	172.747719	81.123389	8.302521
5.7	67.942100	102.600859	170.542960	81.171304	8.760001
5.8	71.636456	96.580196	168.216652	81.230007	9.236327
5.9	75.219175	90.549285	165.768461	81.299513	9.698259
6	78.506985	84.698346	163.205330	81.379700	10.122167
6.1	81.362501	79.176968	160.539470	81.470313	10.490339
6.2	83.670649	74.116598	157.787247	81.570969	10.787936
6.3	85.329792	69.638849	154.968641	81.681165	11.001855
6.4	86.257403	65.849329	152.106732	81.800286	11.121454
6.5	86.403873	62.822970	149.226843	81.927617	11.140339
6.6	85.766971	60.588227	146.355198	82.062354	11.058221
6.7	84.400979	59.116188	143.517167	82.203620	10.882100
6.8	82.416927	58.318424	140.735351	82.350475	10.626289
6.9	79.972675	58.055155	138.027830	82.501939	10.311144
7	77.253507	58.153389	135.406896	82.657003	9.960552
7.1	74.445489	58.433085	132.878574	82.814652	9.598505
7.2	71.705337	58.737752	130.443089	82.973881	9.245208
7.3	69.132604	58.963725	128.096329	83.133713	8.913497
7.4	66.751878	59.080208	125.832086	83.293220	8.606542
7.5	64.512647	59.131963	123.644610	83.451535	8.317831
7.6	62.310090	59.220737	121.530826	83.607875	8.033848
7.7	60.022067	59.469493	119.491561	83.761545	7.738845
7.8	57.550843	59.980569	117.531412	83.911957	7.420222
7.9	54.857009	60.800331	115.657339	84.058629	7.072897
8	51.977578	61.898791	113.876369	84.201196	6.701642
8.1	49.026245	63.166745	112.192991	84.339403	6.321117
8.2	46.178259	64.428561	110.606820	84.473103	5.953917
8.3	43.644471	65.466482	109.110953	84.602250	5.627227
8.4	41.639680	66.051622	107.691302	84.726884	5.368743
8.5	40.350195	65.976811	106.327006	84.847119	5.202485
8.6	39.905000	65.086879	104.991879	84.963127	5.145085
8.7	40.354068	63.302634	103.656702	85.075128	5.202985
8.8	41.656389	60.635702	102.292091	85.183366	5.370897
8.9	43.678971	57.192602	100.871573	85.288108	5.631675
9	46.206856	53.167661	99.374518	85.389623	5.957604
9.1	48.962838	48.825726	97.788564	85.488177	6.312942
9.2	51.634565	44.476694	96.111259	85.584027	6.657417
9.3	53.905951	40.444763	94.350714	85.677416	6.950274
9.4	55.489447	37.035743	92.525190	85.768566	7.154439
9.5	56.155785	34.505850	90.661636	85.857679	7.240353
9.6	55.758145	33.035183	88.793327	85.944937	7.189083
9.7	54.248251	32.708572	86.956823	86.030499	6.994408
9.8	51.682754	33.505790	85.188545	86.114501	6.663630
9.9	48.219109	35.302211	83.521320	86.197060	6.217050
10	44.101273	37.879959	81.981233	86.278276	5.686124
10.1	39.636578	40.948527	80.585105	86.358227	5.110476
10.2	35.166118	44.172744	79.338862	86.436976	4.534085
10.3	31.031761	47.205193	78.236954	86.514572	4.001028
10.4	27.543218	49.719664	77.262882	86.591049	3.551239
10.5	24.948621	51.442156	76.390777	86.666429	3.216709
10.6	23.411524	52.176331	75.587855	86.740722	3.018526
10.7	22.996513	51.820989	74.817503	86.813930	2.965017
10.8	23.664612	50.378069	74.042682	86.886044	3.051157
10.9	25.278675	47.950642	73.229317	86.957048	3.259264
11	27.618008	44.731344	72.349352	87.026919	3.560882
11.1	30.400647	40.982528	71.383175	87.095629	3.919657
11.2	33.311096	37.010121	70.321216	87.163143	4.294911
11.3	36.030867	33.133693	69.164559	87.229423	4.645580
11.4	38.268921	29.655606	67.924527	87.294427	4.934140
11.5	39.789120	26.832180	66.621300	87.358111	5.130144
11.6	40.432030	24.849669	65.281699	87.420427	5.213036
11.7	40.128966	23.807411	63.936377	87.481327	5.173961
11.8	38.906901	23.709779	62.616680	87.540764	5.016396
11.9	36.883823	24.467690	61.351514	87.598689	4.755554
12	34.255082	25.909430	60.164511	87.655056	4.416622
12.1	31.272222	27.799568	59.071790	87.709819	4.032032
12.2	28.216573	29.863936	58.080509	87.762936	3.638057
12.3	25.370373	31.817978	57.188351	87.814371	3.271087
12.4	22.988446	33.395529	56.383975	87.864090	2.963977
12.5	21.273310	34.375045	55.648354	87.912066	2.742839
12.6	20.356146	34.600712	54.956858	87.958280	2.624586
12.7	20.285342	33.996500	54.281842	88.002720	2.615457
12.8	21.023470	32.572012	53.595482	88.045382	2.710626
12.9	22.452694	30.419876	52.872571	88.086276	2.894901
13	24.387833	27.705161	52.092994	88.125418	3.144405
13.1	26.595627	24.648046	51.243673	88.162838	3.429063
13.2	28.818262	21.501522	50.319784	88.198580	3.715635
13.3	30.798818	18.526334	49.325152	88.232699	3.970994
13.4	32.306191	15.965611	48.271802	88.265263	4.165345
13.5	33.157117	14.021604	47.178722	88.296354	4.275058
13.6	33.233237	12.836727	46.069963	88.326068	4.284872
13.7	32.491653	12.480634	44.972287	88.354515	4.189257
13.8	30.968109	12.944461	43.912570	88.381814	3.992821
13.9	28.772622	14.142615	42.915237	88.408098	3.709750
14	26.078139	15.921819	41.999959	88.433512	3.362341
14.1	23.103429	18.076391	41.179820	88.458208	2.978802
14.2	20.091943	20.368199	40.460142	88.482346	2.590521
14.3	17.288700	22.549338	39.838038	88.506093	2.229090
14.4	14.917393	24.385356	39.302749	88.529617	1.923349
14.5	13.159852	25.676853	38.836706	88.553091	1.696744
14.6	12.139738	26.277470	38.417208	88.576684	1.565217
14.7	11.911899	26.106661	38.018560	88.600564	1.535841
14.8	12.458290	25.156162	37.614451	88.624891	1.606289
14.9	13.690705	23.489656	37.180360	88.649817	1.765188
15	15.459939	21.235814	36.695753	88.675484	1.993301
15.1	17.570424	18.575468	36.145893	88.702018	2.265413
15.2	19.798879	15.724196	35.523075	88.729530	2.552736
15.3	21.915199	12.912017	34.827216	88.758114	2.825600
15.4	23.703624	10.362091	34.065715	88.787842	3.056187
15.5	24.982236	8.270419	33.252655	88.818765	3.221043
15.6	25.619014	6.788371	32.407386	88.850912	3.303145
15.7	25.543016	6.009649	31.552664	88.884288	3.293346
15.8	24.749729	5.962783	30.712512	88.918872	3.191065
15.9	23.300207	6.609790	29.909997	88.954623	3.004173
16	21.314159	7.850987	29.165145	88.991472	2.748106
16.1	18.957781	9.535400	28.493181	89.029333	2.444290
16.2	16.427553	11.475678	27.903232	89.068095	2.118059
16.3	13.931604	13.466026	27.397629	89.107628	1.796248
16.4	11.670427	15.301415	26.971842	89.147790	1.504707
16.5	9.818759	16.796278	26.615037	89.188419	1.265965
16.6	8.510249	17.800955	26.311205	89.229345	1.097255
16.7	7.826273	18.214453	26.040727	89.270390	1.009068
16.8	7.789798	17.992438	25.782237	89.311371	1.004365
16.9	8.364721	17.149871	25.514592	89.352103	1.078491
17	9.460596	15.758186	25.218782	89.392403	1.219786
17.1	10.942166	13.937421	24.879587	89.432095	1.410810
17.2	12.642712	11.844150	24.486863	89.471009	1.630067
17.3	14.379912	9.656418	24.036330	89.508989	1.854050
17.4	15.972702	7.557109	23.529811	89.545891	2.059414
17.5	17.257605	5.717309	22.974914	89.581588	2.225081
17.6	18.103058	4.281143	22.384201	89.615972	2.334088
17.7	18.420472	3.353456	21.773928	89.648956	2.375013
17.8	18.171132	2.991354	21.162486	89.680473	2.342865
17.9	17.368387	3.200300	20.568687	89.710477	2.239364
18	16.075079	3.934982	20.010061	89.738946	2.072613
18.1	14.396557	5.104751	19.501308	89.765879	1.856196
18.2	12.470044	6.583010	19.053054	89.791296	1.607804
18.3	10.451424	8.219575	18.670999	89.815238	1.347537
18.4	8.500725	9.854811	18.355536	89.837764	1.096027
18.5	6.767668	11.334190	18.101859	89.858949	0.872578
18.6	5.378575	12.521950	17.900525	89.878885	0.693478
18.7	4.425805	13.312619	17.738424	89.897676	0.570634
18.8	3.960581	13.639457	17.600038	89.915434	0.510651
18.9	3.989760	13.479116	17.468876	89.932282	0.514413
19	4.476700	12.852252	17.328952	89.948347	0.577196
19.1	5.346006	11.820162	17.166168	89.963756	0.689278
19.2	6.491584	10.477889	16.969473	89.978642	0.836982
19.3	7.787164	8.944560	16.731724	89.993130	1.004025
19.4	9.098239	7.351918	16.450157	90.007345	1.173066
19.5	10.294292	5.832165	16.126457	90.021405	1.327277
19.6	11.260208	4.506228	15.766435	90.035418	1.451816
19.7	11.905850	3.473496	15.379346	90.049487	1.535061
19.8	12.173036	2.803893	14.976930	90.063699	1.569510
19.9	12.039375	2.532902	14.572277	90.078135	1.552277
20	11.518750	2.659867	14.178617	90.092861	1.485151
20.1	10.658557	3.149588	13.808145	90.107930	1.374243
20.2	9.534073	3.936919	13.470992	90.123382	1.229260
20.3	8.240603	4.933820	13.174423	90.139246	1.062488
20.4	6.884200	6.038119	12.922319	90.155535	0.887603
20.5	5.571872	7.143112	12.714984	90.172251	0.718400
20.6	4.402166	8.147105	12.549271	90.189384	0.567586
20.7	3.456965	8.962039	12.419004	90.206910	0.445718
20.8	2.795171	9.520477	12.315648	90.224796	0.360391
20.9	2.448727	9.780418	12.229145	90.242999	0.315723
21	2.421225	9.727620	12.148846	90.261465	0.312177
21.1	2.689074	9.375365	12.064439	90.280135	0.346711
21.2	3.204982	8.761829	11.966810	90.298940	0.413229
21.3	3.903326	7.945416	11.848741	90.317810	0.503269
21.4	4.706823	6.998594	11.705417	90.336667	0.606866
21.5	5.533851	6.000840	11.534692	90.355434	0.713498
21.6	6.305733	5.031376	11.337109	90.374030	0.813019
21.7	6.953355	4.162340	11.115695	90.392376	0.896519
21.8	7.422574	3.452967	10.875541	90.410395	0.957017
21.9	7.678004	2.945235	10.623239	90.428012	0.989951
22	7.704944	2.661276	10.366220	90.445156	0.993424
22.1	7.509384	2.602672	10.112056	90.461763	0.968210
22.2	7.116202	2.751594	9.867797	90.477771	0.917516
22.3	6.565820	3.073573	9.639394	90.493129	0.846553
22.4	5.909703	3.521550	9.431253	90.507789	0.761958
22.5	5.205175	4.040777	9.245952	90.521713	0.671121
22.6	4.510061	4.574075	9.084135	90.534870	0.581497
22.7	3.877626	5.066957	8.944582	90.547237	0.499955
22.8	3.352258	5.472175	8.824433	90.558796	0.432218
22.9	2.966223	5.753322	8.719545	90.569541	0.382445
23	2.737692	5.887238	8.624930	90.579468	0.352980
23.1	2.670155	5.865084	8.535238	90.588582	0.344272
23.2	2.753141	5.692101	8.445242	90.596894	0.354972
23.3	2.964117	5.386153	8.350270	90.604419	0.382173
23.4	3.271283	4.975280	8.246563	90.611180	0.421777
23.5	3.636986	4.494546	8.131532	90.617200	0.468929
23.6	4.021373	3.982517	8.003890	90.622509	0.518489
23.7	4.385971	3.477691	7.863662	90.627139	0.565498
23.8	4.696879	3.015212	7.712090	90.631123	0.605584
23.9	4.927303	2.624131	7.551434	90.634501	0.635294
24	5.059294	2.325407	7.384701	90.637308	0.652312
24.1	5.084563	2.130773	7.215337	90.639587	0.655570
24.2	5.004403	2.042502	7.046904	90.641379	0.645234
24.3	4.828777	2.053997	6.882773	90.642725	0.622590
24.4	4.574745	2.151114	6.725859	90.643670	0.589837
24.5	4.264408	2.314010	6.578417	90.644258	0.549824
24.6	3.922604	2.519312	6.441915	90.644534	0.505754
24.7	3.574582	2.742397	6.316979	90.644544	0.460883
24.8	3.243858	2.959558	6.203417	90.644335	0.418241
24.9	2.950423	3.149883	6.100306	90.643955	0.380408
25	2.709421	3.296716	6.006137	90.643455	0.349335
25.1	2.530369	3.388618	5.918987	90.642883	0.326249
25.2	2.416922	3.419793	5.836715	90.642291	0.311622
25.3	2.367155	3.389994	5.757150	90.641732	0.305205
25.4	2.374278	3.303993	5.678271	90.641259	0.306124
25.5	2.427678	3.170671	5.598349	90.640927	0.313009
25.6	2.514181	3.001876	5.516057	90.640789	0.324162
25.7	2.619379	2.811150	5.430529	90.640902	0.337725
25.8	2.728926	2.612457	5.341384	90.641317	0.351850
25.9	2.829689	2.419010	5.248699	90.642091	0.364841
26	2.910664	2.242295	5.152959	90.643273	0.375282
26.1	2.963618	2.091349	5.054967	90.644914	0.382109
26.2	2.983428	1.972325	4.955753	90.647060	0.384663
26.3	2.968121	1.888342	4.856463	90.649754	0.382690
26.4	2.918653	1.839606	4.758259	90.653033	0.376312
26.5	2.838480	1.823748	4.662228	90.656931	0.365975
26.6	2.732976	1.836333	4.569309	90.661473	0.352372
26.7	2.608783	1.871455	4.480238	90.666679	0.336359
26.8	2.473140	1.922377	4.395517	90.672561	0.318870
26.9	2.333269	1.982140	4.315409	90.679121	0.300836
27	2.195842	2.044097	4.239939	90.686356	0.283117
27.1	2.066587	2.102341	4.168928	90.694251	0.266452
27.2	1.950017	2.152008	4.102025	90.702783	0.251422
27.3	1.849305	2.189445	4.038750	90.711921	0.238437
27.4	1.766285	2.212256	3.978541	90.721623	0.227733
27.5	1.701553	2.219241	3.920794	90.731841	0.219387
27.6	1.654644	2.210262	3.864906	90.742517	0.213339
27.7	1.624249	2.186052	3.810301	90.753586	0.209420
27.8	1.608454	2.148005	3.756460	90.764976	0.207383
27.9	1.604958	2.097976	3.702934	90.776610	0.206933
28	1.611262	2.038091	3.649354	90.788405	0.207745
28.1	1.624819	1.970616	3.595436	90.800272	0.209493
28.2	1.643134	1.897845	3.540979	90.812124	0.211855
28.3	1.663823	1.822044	3.485867	90.823867	0.214522
28.4	1.684643	1.745413	3.430056	90.835410	0.217207
28.5	1.703505	1.670074	3.373579	90.846661	0.219639
28.6	1.718477	1.598056	3.316533	90.857533	0.221569
28.7	1.727807	1.531269	3.259077	90.867940	0.222772
28.8	1.729957	1.471469	3.201425	90.877803	0.223049
28.9	1.723654	1.420187	3.143840	90.887050	0.222236
29	1.707971	1.378649	3.086620	90.895616	0.220214
29.1	1.682407	1.347679	3.030086	90.903447	0.216918
29.2	1.646972	1.327597	2.974569	90.910498	0.212350
29.3	1.602254	1.318137	2.920391	90.916736	0.206584
29.4	1.549453	1.318389	2.867842	90.922143	0.199776
29.5	1.490378	1.326786	2.817164	90.926710	0.192159
29.6	1.427387	1.341140	2.768527	90.930445	0.184038
29.7	1.363278	1.358739	2.722017	90.933367	0.175772
29.8	1.301121	1.376500	2.677620	90.935510	0.167758
29.9	1.244049	1.391170	2.635219	90.936919	0.160399
30	1.195024	1.399570	2.594594	90.937654	0.154078
30.1	1.156588	1.398845	2.555433	90.937784	0.149123
30.2	1.130626	1.386723	2.517349	90.937387	0.145775
30.3	1.118167	1.361741	2.479908	90.936552	0.144169
30.4	1.119240	1.323414	2.442654	90.935374	0.144307
30.5	1.132811	1.272341	2.405152	90.933951	0.146057
30.6	1.156799	1.210218	2.367017	90.932387	0.149150
30.7	1.188190	1.139760	2.327950	90.930784	0.153197
30.8	1.223239	1.064525	2.287764	90.929246	0.157716
30.9	1.257743	0.988663	2.246406	90.927871	0.162165
31	1.287378	0.916590	2.203968	90.926754	0.165986
31.1	1.308050	0.852631	2.160681	90.925984	0.168651
31.2	1.316255	0.800649	2.116904	90.925640	0.169709
31.3	1.309395	0.763703	2.073098	90.925792	0.168825
31.4	1.286035	0.743759	2.029795	90.926499	0.165813
31.5	1.246061	0.741487	1.987548	90.927809	0.160659
31.6	1.190735	0.756160	1.946895	90.929756	0.153525
31.7	1.122631	0.785677	1.908308	90.932363	0.144745
31.8	1.045454	0.826700	1.872154	90.935637	0.134794
31.9	0.963757	0.874905	1.838661	90.939573	0.124260
32	0.882572	0.925326	1.807898	90.944153	0.113793
32.1	0.807003	0.972757	1.779761	90.949346	0.104050
32.2	0.741788	1.012194	1.753982	90.955108	0.095641
32.3	0.690894	1.039255	1.730149	90.961387	0.089079
32.4	0.657167	1.050565	1.707732	90.968115	0.084731
32.5	0.642078	1.044052	1.686130	90.975220	0.082785
32.6	0.645581	1.019139	1.664719	90.982618	0.083237
32.7	0.666100	0.976802	1.642902	90.990222	0.085883
32.8	0.700658	0.919499	1.620156	90.997938	0.090338
32.9	0.745115	0.850966	1.596081	91.005668	0.096070
33	0.794525	0.775901	1.570426	91.013315	0.102441
33.1	0.843551	0.699566	1.543117	91.020780	0.108762
33.2	0.886920	0.627332	1.514253	91.027966	0.114354
33.3	0.919878	0.564227	1.484105	91.034782	0.118603
33.4	0.938586	0.514500	1.453086	91.041141	0.121015
33.5	0.940452	0.481268	1.421720	91.046964	0.121256
33.6	0.924338	0.466252	1.390590	91.052182	0.119178
33.7	0.890647	0.469646	1.360293	91.056736	0.114834
33.8	0.841277	0.490111	1.331388	91.060578	0.108469
33.9	0.779447	0.524900	1.304347	91.063673	0.100497
34	0.709402	0.570115	1.279516	91.066001	0.091466
34.1	0.636049	0.621041	1.257090	91.067554	0.082008
34.2	0.564528	0.672564	1.237093	91.068340	0.072787
34.3	0.499779	0.719600	1.219380	91.068379	0.064438
34.4	0.446125	0.757525	1.203651	91.067707	0.057520
34.5	0.406923	0.782554	1.189477	91.066370	0.052466
34.6	0.384295	0.792043	1.176338	91.064427	0.049548
34.7	0.378978	0.784686	1.163664	91.061946	0.048863
34.8	0.390290	0.760598	1.150887	91.059006	0.050321
34.9	0.416209	0.721273	1.137482	91.055691	0.053663
35	0.453580	0.669432	1.123012	91.052091	0.058482
35.1	0.498395	0.608765	1.107161	91.048298	0.064260
35.2	0.546146	0.543607	1.089753	91.044407	0.070416
35.3	0.592213	0.478557	1.070770	91.040511	0.076356
35.4	0.632242	0.418098	1.050340	91.036700	0.081517
35.5	0.662502	0.366227	1.028729	91.033060	0.085419
35.6	0.680173	0.326140	1.006313	91.029670	0.087697
35.7	0.683550	0.299993	0.983543	91.026603	0.088132
35.8	0.672158	0.288750	0.960908	91.023922	0.086664
35.9	0.646749	0.292140	0.938889	91.021678	0.083388
36	0.609211	0.308715	0.917926	91.019914	0.078548
36.1	0.562374	0.336004	0.898379	91.018660	0.072509
36.2	0.509756	0.370743	0.880499	91.017933	0.065725
36.3	0.455250	0.409166	0.864416	91.017741	0.058697
36.4	0.402795	0.447331	0.850126	91.018077	0.051934
36.5	0.356049	0.481450	0.837499	91.018924	0.045907
36.6	0.318100	0.508191	0.826292	91.020254	0.041014
36.7	0.291228	0.524942	0.816169	91.022028	0.037549
36.8	0.276737	0.530001	0.806738	91.024200	0.035681
36.9	0.274883	0.522697	0.797579	91.026713	0.035442
37	0.284875	0.503406	0.788281	91.029505	0.036730
37.1	0.304979	0.473496	0.778475	91.032507	0.039322
37.2	0.332678	0.435187	0.767864	91.035647	0.042893
37.3	0.364908	0.391338	0.756246	91.038851	0.047049
37.4	0.398323	0.345201	0.743524	91.042042	0.051357
37.5	0.429580	0.300135	0.729715	91.045146	0.055387
37.6	0.455610	0.259334	0.714943	91.048089	0.058743
37.7	0.473867	0.225561	0.699428	91.050801	0.061097
37.8	0.482521	0.200939	0.683459	91.053218	0.062213
